1945
1914
1883
1844
1806
1761
1716
1676
1636
1612
1589
1586
1583
1589
1595
1591
1587
1560
1534
1495
1456
1435
1414
1453
1492
1615
1738
1934
2131
2353
2576
2760
2944
3007
3071
3071
3071
2982
2893
2773
2653
2554
2455
2400
2346
2328
2311
2307
2304
2294
2284
2262
2241
2218
2196
2188
2180
2193
2207
2233
2260
2284
2308
2314
2320
2304
2289
2261
2233
2203
2173
2147
2122
2097
2073
2042
2012
1971
1931
1886
1842
1806
1770
1752
1734
1731
1729
1728
1727
1710
1694
1658
1622
1583
1544
1536
1528
1583
1638
1767
1896
2075
2255
2437
2619
2747
2876
2918
2961
2918
2875
2779
2683
2578
2474
2394
2315
2270
2226
2205
2185
2169
2153
2132
2111
2089
2067
2057
2047
2059
2071
2101
2131
2163
2195
2211
2228
2219
2210
2180
2151
2115
2079
2049
2020
2000
1980
1961
1943
1916
1889
1852
1815
1776
1738
1711
1685
1678
1671
1676
1682
1683
1685
1667
1649
1613
1577
1546
1515
1524
1533
1609
1686
1830
1974
2154
2334
2496
2658
2755
2852
2861
2870
2804
2738
2633
2528
2424
2320
2241
2163
2114
2066
2035
2005
1983
1961
1945
1930
1928
1927
1946
1965
2003
2042
2085
2128
2158
2188
2192
2196
2175
2154
2119
2085
2051
2017
1988
1960
1934
1909
1879
1849
1813
1777
1740
1704
1679
1654
1646
1639
1642
1646
1644
1643
1621
1600
1561
1522
1490
1458
1468
1479
1562
1645
1800
1955
2149
2344
2522
2700
2808
2917
2931
2945
2876
2808
2695
2583
2470
2358
2273
2188
2135
2082
2048
2015
1987
1960
1936
1913
1902
1892
1904
1917
1954
1991
2039
2087
2125
2164
2177
2190
2173
2157
2121
2085
2043
2002
1964
1926
1891
1857
1820
1784
1743
1703
1663
1624
1594
1565
1552
1539
1536
1534
1527
1520
1494
1469
1429
1390
1360
1330
1346
1362
1453
1544
1710
1876
2082
2288
2477
2667
2784
2902
2920
2939
2870
2801
2684
2568
2449
2330
2240
2150
2094
2038
2005
1972
1947
1923
1902
1882
1872
1863
1874
1885
1918
1952
1996
2040
2076
2113
2127
2141
2129
2117
2087
2058
2023
1988
1955
1922
1890
1858
1821
1784
1742
1700
1659
1618
1590
1563
1553
1544
1547
1551
1549
1548
1526
1505
1465
1425
1392
1360
1375
1390
1484
1579
1756
1933
2157
2382
2591
2801
2934
3067
3069
3071
3020
2969
2850
2732
2618
2504
2428
2353
2322
2291
2285
2280
2277
2274
2261
2249
2230
2212
2201
2191
2199
2207
2230
2253
2278
2304
2316
2329
2320
2312
2287
2262
2231
2200
2170
2141
2113
2085
2053
2022
1982
1942
1898
1854
1816
1779
1757
1735
1730
1725
1723
1721
1705
1690
1654
1619
1576
1533
1515
1497
1539
1582
1701
1821
2002
2183
2378
2574
2727
2881
2949
3017
2992
2967
2876
2785
2673
2562
2469
2377
2322
2267
2242
2217
2205
2193
2177
2162
2142
2123
2109
2095
2097
2100
2119
2138
2164
2190
2207
2224
2222
2220
2199
2178
2149
2120
2091
2063
2039
2016
1991
1966
1933
1900
1858
1817
1776
1735
1708
1681
1677
1673
1684
1696
1704
1713
1700
1687
1650
1613
1570
1528
1517
1507
1560
1614
1742
1871
2049
2227
2405
2584
2709
2835
2876
2917
2874
2831
2735
2640
2532
2424
2334
2244
2183
2122
2082
2043
2014
1986
1965
1944
1935
1926
1937
1948
1980
2013
2057
2101
2138
2176
2191
2207
2196
2185
2155
2126
2089
2053
2019
1986
1955
1924
1892
1860
1823
1787
1750
1714
1687
1660
1649
1639
1642
1646
1649
1652
1639
1626
1593
1560
1524
1488
1481
1474
1528
1583
1710
1838
2016
2195
2378
2562
2695
2828
2877
2926
2887
2849
2751
2654
2539
2425
2327
2229
2161
2094
2052
2011
1983
1956
1936
1916
1906
1896
1905
1915
1945
1976
2019
2063
2103
2143
2163
2184
2177
2170
2142
2114
2077
2040
2003
1967
1934
1901
1867
1834
1797
1761
1725
1689
1661
1633
1620
1607
1605
1603
1599
1596
1575
1554
1513
1472
1429
1387
1379
1372
1432
1493
1634
1776
1973
2170
2371
2573
2718
2864
2916
2968
2924
2881
2775
2669
2546
2424
2321
2218
2148
2079
2034
1990
1957
1925
1898
1871
1854
1838
1842
1847
1877
1907
1952
1997
2038
2080
2099
2119
2110
2101
2072
2043
2007
1971
1937
1904
1872
1841
1804
1768
1723
1678
1630
1583
1546
1510
1495
1480
1484
1489
1495
1502
1490
1479
1443
1408
1367
1327
1320
1314
1381
1449
1606
1763
1983
2203
2428
2654
2818
2983
3027
3071
3037
3004
2893
2783
2662
2541
2452
2363
2318
2274
2261
2249
2245
2241
2230
2220
2203
2186
2175
2164
2170
2176
2198
2221
2248
2275
2291
2308
2305
2302
2281
2261
2232
2203
2174
2145
2115
2086
2052
2018
1975
1933
1886
1840
1801
1763
1743
1724
1724
1724
1729
1735
1727
1719
1686
1653
1606
1560
1532
1504
1534
1564
1675
1787
1968
2150
2356
2562
2730
2899
2982
3065
3049
3033
2943
2853
2737
2621
2523
2426
2369
2312
2290
2268
2259
2250
2235
2221
2195
2170
2144
2119
2108
2098
2110
2122
2148
2174
2199
2224
2232
2240
2227
2215
2187
2160
2129
2098
2070
2043
2017
1991
1960
1930
1892
1855
1816
1777
1747
1718
1707
1696
1701
1706
1712
1719
1708
1698
1663
1629
1585
1542
1521
1500
1536
1573
1683
1794
1962
2131
2313
2495
2637
2779
2841
2904
2880
2857
2772
2687
2581
2475
2382
2290
2226
2162
2122
2082
2054
2027
2003
1979
1962
1946
1946
1946
1968
1990
2029
2068
2107
2147
2170
2193
2191
2189
2165
2142
2110
2078
2046
2015
1987
1959
1929
1900
1863
1827
1785
1744
1708
1673
1654
1635
1636
1637
1646
1656
1656
1656
1634
1613
1576
1540
1516
1493
1518
1543
1638
1734
1893
2053
2237
2422
2578
2734
2816
2898
2892
2886
2809
2732
2622
2512
2406
2301
2221
2141
2088
2035
1999
1963
1936
1909
1893
1878
1881
1884
1910
1936
1979
2023
2069
2115
2145
2175
2179
2183
2163
2143
2111
2080
2047
2014
1983
1953
1921
1890
1852
1815
1773
1732
1694
1656
1632
1608
1601
1594
1594
1595
1588
1581
1552
1523
1484
1446
1425
1405
1437
1470
1578
1686
1861
2037
2238
2439
2607
2776
2864
2953
2944
2935
2849
2763
2641
2520
2405
2291
2207
2124
2072
2020
1987
1954
1928
1903
1884
1865
1860
1855
1872
1889
1924
1960
2001
2042
2071
2101
2107
2114
2097
2080
2048
2016
1978
1940
1900
1861
1818
1776
1728
1681
1634
1587
1551
1515
1498
1482
1483
1485
1490
1495
1485
1475
1439
1403
1356
1309
1286
1263
1306
1349
1481
1614
1822
2031
2264
2498
2690
2882
2976
3071
3057
3044
2948
2852
2726
2601
2494
2387
2323
2260
2234
2208
2199
2190
2178
2166
2147
2128
2113
2098
2101
2104
2128
2152
2188
2225
2255
2285
2294
2304
2289
2275
2245
2216
2183
2150
2119
2089
2057
2026
1987
1949
1903
1857
1811
1766
1734
1702
1691
1681
1684
1687
1687
1687
1666
1646
1605
1565
1528
1492
1499
1507
1592
1677
1843
2010
2224
2439
2641
2843
2957
3071
3071
3071
3024
2977
2855
2734
2616
2499
2420
2341
2305
2270
2260
2251
2244
2237
2220
2204
2182
2160
2146
2133
2138
2144
2166
2188
2213
2238
2249
2260
2249
2239
2211
2183
2150
2117
2089
2061
2038
2015
1991
1967
1933
1900
1858
1816
1776
1736
1712
1688
1685
1682
1692
1702
1705
1708
1690
1672
1635
1598
1566
1535
1545
1555
1634
1713
1860
2007
2188
2370
2533
2697
2793
2890
2898
2906
2838
2771
2664
2558
2454
2350
2273
2197
2152
2107
2081
2055
2035
2016
2000
1984
1977
1970
1981
1993
2022
2052
2089
2127
2156
2185
2192
2199
2183
2167
2136
2106
2073
2041
2013
1986
1961
1937
1908
1880
1845
1811
1776
1741
1715
1690
1682
1674
1680
1686
1691
1696
1685
1675
1645
1615
1582
1549
1544
1540
1594
1648
1769
1891
2058
2225
2392
2559
2677
2795
2833
2871
2829
2788
2694
2600
2492
2385
2293
2201
2137
2073
2031
1989
1960
1931
1911
1892
1886
1880
1895
1910
1946
1983
2029
2075
2114
2154
2171
2189
2180
2172
2144
2117
2084
2051
2019
1988
1958
1928
1895
1862
1823
1785
1745
1706
1676
1647
1634
1622
1623
1625
1626
1628
1609
1591
1553
1515
1475
1436
1430
1425
1487
1550
1691
1833
2029
2225
2422
2619
2757
2896
2939
2982
2931
2880
2770
2660
2536
2413
2312
2211
2144
2078
2037
1996
1966
1936
1911
1886
1872
1858
1865
1872
1904
1936
1982
2029
2071
2114
2134
2155
2147
2139
2109
2080
2042
2004
1967
1931
1896
1861
1822
1783
1737
1691
1643
1596
1559
1522
1505
1488
1487
1487
1487
1488
1471
1455
1417
1379
1340
1301
1298
1295
1366
1437
1592
1747
1960
2173
2385
2598
2749
2900
2949
2998
2948
2899
2787
2676
2554
2433
2340
2247
2195
2143
2120
2097
2084
2072
2058
2044
2032
2021
2023
2025
2048
2071
2108
2146
2183
2220
2238
2257
2251
2245
2220
2196
2165
2135
2107
2080
2054
2029
1998
1968
1928
1888
1842
1796
1756
1717
1694
1672
1667
1663
1662
1661
1645
1630
1592
1555
1511
1468
1454
1441
1496
1552
1692
1832
2037
2243
2460
2677
2842
3008
3039
3071
3060
3050
2945
2841
2722
2603
2511
2419
2370
2322
2305
2289
2282
2275
2260
2246
2223
2201
2181
2162
2159
2156
2172
2189
2216
2243
2263
2283
2284
2285
2265
2246
2215
2185
2154
2123
2097
2071
2046
2021
1989
1958
1918
1878
1836
1795
1763
1731
1717
1704
1704
1705
1705
1706
1690
1674
1639
1605
1569
1533
1528
1524
1581
1638
1766
1895
2072
2249
2427
2606
2734
2863
2907
2952
2912
2872
2776
2681
2571
2461
2369
2278
2218
2158
2123
2089
2066
2043
2024
2006
1993
1981
1983
1986
2007
2029
2064
2100
2135
2170
2189
2208
2203
2199
2174
2150
2116
2083
2051
2019
1991
1963
1935
1907
1874
1842
1806
1770
1738
1707
1689
1672
1670
1669
1674
1679
1676
1673
1653
1633
1601
1570
1552
1535
1562
1589
1680
1772
1921
2071
2243
2416
2563
2710
2790
2871
2868
2866
2796
2726
2621
2517
2413
2310
2229
2148
2092
2036
1998
1960
1933
1907
1892
1878
1882
1886
1913
1940
1984
2028
2074
2121
2151
2181
2185
2189
2169
2149
2116
2084
2050
2017
1988
1960
1932
1905
1873
1841
1804
1767
1731
1696
1672
1649
1641
1633
1633
1633
1626
1619
1593
1567
1528
1489
1462
1436
1457
1478
1572
1666
1829
1993
2190
2387
2561
2735
2836
2937
2943
2950
2875
2801
2685
2570
2455
2340
2252
2164
2106
2049
2011
1973
1944
1915
1894
1873
1868
1863
1881
1900
1939
1979
2024
2069
2101
2133
2139
2145
2127
2109
2077
2045
2013
1981
1952
1923
1893
1863
1824
1786
1738
1690
1642
1595
1563
1531
1520
1510
1514
1518
1517
1517
1494
1471
1428
1386
1350
1315
1327
1339
1431
1524
1697
1870
2086
2302
2498
2695
2814
2934
2949
2964
2888
2813
2691
2569
2451
2333
2248
2164
2117
2071
2045
2020
2000
1980
1960
1940
1930
1920
1931
1942
1978
2014
2063
2113
2155
2197
2214
2232
2221
2210
2181
2152
2118
2085
2055
2025
1997
1970
1935
1901
1857
1813
1765
1718
1682
1646
1630
1615
1618
1621
1624
1627
1611
1596
1558
1520
1481
1442
1442
1443
1521
1599
1765
1931
2155
2380
2600
2821
2946
3071
3071
3071
3044
3018
2893
2769
2645
2521
2436
2351
2313
2276
2268
2261
2258
2255
2240
2226
2203
2181
2164
2147
2149
2152
2175
2199
2229
2260
2280
2300
2298
2296
2273
2250
2216
2183
2151
2119
2092
2065
2038
2011
1979
1947
1908
1870
1834
1798
1775
1752
1746
1741
1744
1748
1744
1740
1715
1691
1650
1610
1577
1545
1555
1566
1644
1723
1868
2013
2190
2368
2528
2688
2783
2878
2887
2896
2832
2768
2667
2567
2468
2369
2297
2226
2184
2142
2119
2097
2079
2062
2046
2030
2021
2012
2018
2025
2048
2071
2102
2133
2157
2181
2187
2193
2179
2165
2140
2115
2090
2065
2045
2025
2006
1988
1963
1939
1905
1871
1831
1792
1759
1726
1710
1694
1694
1695
1700
1706
1699
1693
1667
1642
1609
1576
1564
1552
1590
1628
1732
1837
1992
2148
2316
2484
2615
2747
2805
2864
2842
2820
2737
2655
2549
2443
2344
2246
2172
2099
2050
2001
1968
1935
1913
1891
1882
1874
1885
1896
1927
1959
2003
2048
2089
2131
2155
2179
2177
2176
2154
2132
2101
2071
2040
2010
1982
1955
1926
1898
1864
1830
1793
1756
1725
1694
1678
1662
1660
1659
1662
1666
1655
1645
1614
1583
1543
1503
1484
1465
1501
1538
1650
1762
1937
2112
2306
2500
2656
2813
2887
2962
2942
2923
2833
2743
2624
2505
2397
2289
2210
2132
2081
2031
1995
1960
1931
1903
1883
1864
1864
1864
1890
1916
1962
2009
2058
2108
2140
2173
2177
2181
2159
2137
2101
2066
2029
1992
1958
1924
1889
1854
1812
1771
1725
1680
1639
1598
1573
1548
1541
1534
1533
1533
1521
1510
1478
1447
1405
1364
1345
1326
1366
1407
1529
1651
1840
2030
2240
2450
2618
2787
2866
2945
2922
2900
2802
2705
2580
2456
2347
2239
2166
2094
2053
2012
1985
1958
1933
1908
1886
1864
1858
1852
1873
1894
1939
1985
2038
2091
2130
2170
2181
2192
2176
2160
2128
2096
2061
2026
1993
1960
1926
1893
1853
1813
1768
1723
1682
1642
1618
1595
1591
1587
1593
1599
1594
1590
1563
1537
1496
1455
1432
1409
1443
1478
1596
1715
1909
2104
2328
2552
2740
2929
3000
3071
3071
3071
2988
2905
2781
2657
2551
2445
2382
2319
2295
2272
2266
2261
2252
2244
2226
2208
2190
2172
2167
2163
2180
2197
2227
2258
2285
2313
2322
2331
2317
2304
2275
2247
2215
2183
2155
2128
2103
2078
2048
2019
1981
1944
1902
1860
1825
1791
1772
1754
1751
1748
1747
1746
1730
1715
1679
1644
1603
1563
1549
1535
1581
1627
1746
1866
2039
2213
2395
2577
2713
2849
2901
2954
2920
2886
2792
2698
2588
2479
2389
2300
2244
2189
2160
2131
2113
2095
2077
2059
2042
2026
2021
2016
2031
2047
2079
2112
2147
2183
2204
2226
2223
2220
2196
2172
2139
2107
2076
2046
2021
1997
1972
1948
1916
1885
1845
1805
1766
1727
1701
1676
1671
1667
1676
1686
1692
1698
1684
1671
1637
1603
1568
1533
1532
1532
1595
1659
1791
1924
2098
2273
2441
2610
2722
2834
2862
2891
2841
2791
2693
2595
2488
2381
2292
2204
2142
2080
2039
1998
1969
1940
1921
1903
1899
1896
1915
1935
1974
2013
2059
2106
2141
2176
2187
2198
2183
2168
2138
2108
2075
2043
2015
1988
1963
1938
1908
1878
1840
1802
1762
1722
1692
1663
1652
1641
1646
1651
1657
1663
1651
1639
1607
1575
1538
1502
1495
1488
1543
1598
1726
1854
2031
2209
2389
2570
2699
2828
2874
2921
2884
2848
2757
2667
2562
2457
2366
2276
2210
2144
2095
2047
2006
1965
1931
1898
1880
1862
1870
1879
1915
1951
2002
2054
2100
2146
2168
2191
2182
2174
2143
2112
2073
2035
2000
1965
1934
1903
1871
1839
1800
1762
1721
1680
1645
1610
1590
1571
1566
1561
1559
1557
1540
1523
1487
1452
1412
1373
1363
1353
1407
1462
1596
1730
1923
2117
2321
2526
2682
2838
2903
2969
2936
2903
2800
2698
2571
2444
2334
2224
2148
2073
2029
1986
1959
1933
1914
1896
1884
1873
1878
1883
1907
1932
1971
2010
2048
2087
2108
2130
2126
2123
2099
2076
2044
2013
1982
1952
1924
1897
1866
1836
1796
1757
1712
1668
1629
1590
1569
1548
1547
1546
1553
1560
1554
1549
1520
1491
1449
1408
1387
1366
1407
1449
1576
1703
1903
2104
2329
2555
2740
2925
2998
3071
3068
3065
2968
2872
2748
2625
2522
2419
2358
2297
2274
2252
2244
2237
2227
2218
2201
2184
2171
2158
2161
2164
2187
2210
2243
2276
2301
2327
2331
2336
2318
2301
2270
2239
2207
2176
2148
2121
2093
2066
2031
1996
1951
1907
1860
1813
1779
1745
1732
1719
1724
1729
1734
1739
1725
1712
1674
1637
1595
1554
1544
1534
1591
1649
1783
1918
2106
2295
2483
2672
2804
2937
2977
3017
2967
2918
2813
2708
2595
2483
2398
2314
2269
2225
2207
2190
2180
2170
2153
2137
2117
2098
2086
2075
2082
2089
2114
2139
2168
2198
2215
2233
2228
2224
2200
2176
2143
2111
2081
2052
2028
2004
1980
1956
1925
1895
1856
1818
1780
1743
1718
1694
1689
1684
1692
1700
1703
1706
1689
1673
1636
1599
1562
1525
1523
1522
1584
1647
1780
1913
2090
2267
2439
2611
2727
2844
2875
2907
2857
2807
2706
2606
2495
2385
2294
2204
2143
2083
2046
2009
1984
1960
1943
1926
1920
1915
1928
1942
1976
2010
2054
2098
2135
2173
2188
2204
2192
2181
2151
2121
2084
2048
2016
1985
1958
1931
1904
1877
1845
1813
1777
1742
1712
1683
1668
1654
1653
1653
1655
1658
1647
1637
1608
1579
1542
1505
1491
1477
1519
1561
1675
1790
1963
2136
2324
2513
2661
2810
2879
2948
2925
2903
2812
2722
2603
2484
2375
2267
2187
2108
2058
2009
1978
1948
1928
1909
1901
1893
1903
1913
1943
1974
2018
2062
2103
2144
2166
2188
2183
2178
2151
2124
2088
2052
2017
1983
1953
1923
1892
1862
1825
1788
1745
1703
1664
1626
1603
1581
1576
1572
1575
1579
1572
1565
1537
1510
1469
1429
1406
1383
1413
1443
1550
1657
1831
2006
2206
2406
2573
2741
2827
2914
2904
2895
2810
2725
2608
2491
2384
2277
2200
2124
2078
2032
2001
1971
1944
1917
1894
1872
1864
1857
1873
1889
1926
1964
2008
2052
2083
2115
2119
2124
2103
2083
2049
2015
1979
1944
1912
1881
1850
1819
1782
1745
1701
1658
1617
1576
1549
1523
1517
1511
1517
1524
1523
1523
1502
1481
1442
1403
1373
1344
1363
1383
1482
1582
1760
1939
2159
2379
2579
2780
2903
3027
3046
3065
2995
2925
2811
2697
2589
2481
2409
2337
2305
2273
2262
2251
2241
2231
2212
2194
2175
2157
2152
2148
2165
2183
2216
2250
2281
2313
2325
2337
2323
2309
2276
2243
2206
2169
2137
2106
2081
2057
2030
2003
1967
1932
1889
1847
1809
1772
1750
1728
1724
1721
1723
1725
1713
1701
1666
1631
1584
1537
1511
1485
1520
1555
1671
1787
1971
2156
2361
2566
2731
2896
2973
3051
3030
3010
2919
2828
2715
2602
2510
2418
2366
2314
2293
2272
2260
2248
2227
2206
2176
2146
2119
2093
2087
2082
2101
2121
2155
2189
2217
2245
2250
2255
2234
2214
2179
2144
2110
2076
2051
2027
2009
1991
1969
1948
1914
1881
1839
1798
1760
1723
1703
1684
1684
1684
1692
1701
1697
1693
1665
1638
1594
1551
1522
1493
1514
1536
1631
1727
1887
2048
2234
2421
2578
2735
2819
2903
2897
2892
2816
2740
2632
2524
2423
2323
2251
2180
2137
2094
2067
2040
2018
1997
1980
1964
1960
1956
1973
1991
2027
2064
2105
2147
2176
2205
2208
2212
2190
2169
2133
2098
2063
2029
2001
1973
1948
1924
1895
1867
1831
1796
1757
1719
1690
1662
1651
1641
1645
1649
1653
1657
1645
1633
1601
1569
1534
1500
1496
1492
1550
1609
1739
1869
2048
2228
2407
2586
2712
2839
2879
2919
2874
2829
2728
2627
2513
2400
2305
2211
2148
2086
2048
2010
1984
1959
1939
1920
1911
1903
1914
1925
1958
1992
2038
2084
2125
2166
2184
2202
2192
2182
2150
2119
2080
2042
2007
1972
1942
1912
1880
1848
1810
1772
1730
1688
1653
1618
1601
1584
1586
1589
1596
1603
1595
1587
1555
1523
1478
1433
1408
1384
1419
1454
1571
1689
1875
2062
2270
2478
2645
2812
2889
2966
2941
2916
2815
2715
2587
2460
2349
2239
2167
2095
2056
2018
1995
1972
1950
1929
1909
1889
1882
1875
1891
1907
1944
1982
2025
2068
2096
2124
2123
2123
2095
2068
2027
1987
1947
1907
1874
1842
1812
1783
1748
1713
1671
1630
1589
1549
1521
1494
1486
1479
1483
1487
1485
1484
1462
1440
1401
1362
1334
1306
1329
1352
1456
1561
1745
1930
2155
2381
2584
2788
2910
3033
3048
3063
2987
2911
2790
2669
2555
2442
2368
2294
2262
2230
2221
2213
2206
2199
2184
2169
2152
2135
2130
2126
2141
2157
2187
2217
2245
2273
2283
2294
2281
2268
2239
2210
2177
2145
2117
2090
2067
2044
2017
1990
1952
1915
1871
1828
1789
1751
1731
1711
1709
1707
1711
1716
1706
1697
1663
1630
1583
1537
1512
1487
1522
1558
1676
1795
1984
2173
2386
2599
2773
2948
3009
3071
3070
3070
2977
2884
2764
2645
2546
2447
2389
2331
2308
2286
2277
2268
2253
2238
2212
2186
2159
2133
2122
2112
2124
2137
2165
2193
2219
2245
2252
2260
2243
2226
2192
2159
2123
2087
2057
2028
2006
1984
1960
1937
1906
1875
1837
1800
1766
1733
1714
1695
1695
1695
1702
1709
1706
1704
1679
1655
1613
1572
1540
1509
1523
1537
1621
1705
1856
2007
2190
2374
2537
2701
2796
2891
2897
2904
2835
2766
2658
2550
2445
2340
2264
2189
2148
2107
2089
2071
2061
2051
2041
2032
2027
2022
2030
2038
2060
2083
2114
2145
2170
2195
2201
2207
2191
2176
2145
2115
2080
2045
2013
1982
1954
1926
1897
1868
1835
1802
1768
1735
1710
1685
1675
1666
1669
1672
1675
1678
1665
1653
1621
1589
1551
1514
1502
1490
1534
1579
1693
1807
1974
2142
2319
2497
2632
2768
2825
2882
2854
2826
2738
2651
2543
2436
2342
2249
2184
2120
2080
2041
2013
1986
1964
1942
1927
1913
1916
1919
1946
1973
2017
2061
2105
2150
2175
2200
2196
2193
2164
2135
2095
2056
2019
1982
1952
1922
1895
1868
1835
1803
1764
1726
1689
1652
1629
1606
1602
1598
1606
1614
1612
1610
1589
1568
1527
1487
1453
1419
1429
1440
1525
1611
1773
1935
2138
2341
2526
2711
2823
2935
2947
2959
2884
2809
2689
2570
2452
2334
2248
2163
2112
2061
2031
2001
1975
1949
1923
1897
1881
1865
1871
1878
1911
1944
1990
2036
2074
2113
2124
2136
2117
2099
2060
2022
1979
1936
1900
1864
1833
1803
1769
1736
1695
1654
1609
1565
1530
1495
1480
1465
1468
1471
1475
1480
1468
1456
1420
1384
1344
1304
1298
1292
1360
1428
1583
1738
1955
2172
2393
2615
2775
2935
2990
3046
2998
2951
2839
2728
2607
2486
2397
2309
2266
2223
2210
2198
2192
2186
2171
2156
2135
2115
2104
2094
2106
2118
2151
2185
2224
2263
2286
2310
2306
2302
2274
2246
2208
2171
2136
2102
2075
2048
2022
1996
1961
1926
1880
1835
1790
1745
1715
1685
1678
1671
1678
1685
1686
1688
1665
1643
1598
1554
1514
1474
1480
1487
1574
1661
1831
2001
2218
2436
2639
2842
2956
3071
3071
3071
3022
2974
2855
2737
2625
2514
2442
2370
2342
2314
2310
2307
2303
2299
2282
2265
2238
2211
2189
2168
2164
2161
2176
2191
2212
2234
2245
2256
2246
2237
2209
2182
2147
2113
2082
2052
2028
2005
1983
1961
1932
1904
1868
1833
1797
1761
1737
1714
1709
1704
1712
1720
1724
1728
1711
1695
1655
1616
1573
1531
1519
1508
1560
1613
1739
1865
2040
2216
2393
2571
2697
2823
2865
2907
2866
2825
2731
2637
2533
2430
2349
2268
2221
2174
2152
2130
2115
2100
2083
2066
2049
2033
2028
2023
2038
2053
2084
2115
2148
2181
2198
2216
2208
2201
2172
2143
2105
2067
2033
2000
1974
1949
1927
1905
1879
1853
1820
1788
1755
1722
1699
1677
1671
1665
1669
1674
1674
1674
1655
1637
1602
1567
1535
1503
1508
1513
1581
1650
1786
1923
2099
2276
2443
2611
2720
2830
2855
2880
2825
2770
2668
2566
2456
2347
2261
2175
2120
2066
2036
2006
1988
1970
1957
1945
1942
1939
1952
1965
1995
2026
2066
2106
2138
2171
2182
2194
2180
2167
2135
2104
2066
2029
1995
1961
1931
1901
1871
1842
1809
1776
1743
1710
1683
1657
1645
1634
1634
1635
1633
1631
1614
1598
1563
1528
1488
1448
1434
1421
1468
1515
1637
1759
1940
2121
2314
2508
2659
2810
2877
2944
2919
2894
2802
2711
2594
2477
2373
2269
2194
2120
2072
2025
1993
1961
1936
1911
1896
1881
1885
1889
1917
1945
1988
2032
2073
2115
2135
2156
2146
2136
2102
2069
2027
1986
1950
1914
1885
1857
1829
1802
1765
1729
1683
1637
1591
1545
1515
1485
1477
1470
1476
1483
1483
1483
1460
1438
1395
1353
1318
1284
1300
1316
1414
1513
1693
1873
2095
2318
2519
2720
2840
2960
2973
2986
2909
2832
2713
2594
2484
2374
2304
2234
2204
2175
2165
2156
2144
2133
2112
2092
2073
2054
2053
2052
2077
2102
2144
2186
2224
2263
2278
2294
2280
2266
2231
2197
2158
2119
2087
2055
2029
2003
1973
1943
1903
1863
1814
1766
1724
1682
1659
1637
1636
1635
1642
1649
1642
1635
1602
1569
1522
1476
1452
1428
1469
1511
1641
1771
1975
2179
2404
2630
2810
2991
3031
3071
3071
3071
2968
2866
2744
2622
2528
2434
2388
2342
2333
2324
2324
2325
2313
2302
2275
2248
2218
2189
2176
2163
2174
2186
2215
2244
2269
2295
2300
2305
2284
2263
2225
2188
2149
2111
2081
2052
2030
2009
1986
1964
1932
1900
1860
1821
1785
1750
1731
1713
1713
1713
1721
1730
1726
1722
1693
1665
1619
1573
1539
1505
1520
1535
1625
1716
1876
2036
2227
2418
2583
2749
2842
2935
2936
2937
2863
2790
2682
2574
2473
2373
2304
2236
2199
2163
2143
2123
2105
2087
2066
2046
2032
2018
2022
2027
2052
2078
2114
2151
2180
2210
2217
2224
2204
2185
2148
2112
2073
2035
2004
1973
1949
1925
1901
1877
1846
1815
1780
1746
1718
1690
1678
1666
1670
1675
1683
1692
1686
1680
1651
1623
1582
1541
1518
1496
1526
1557
1660
1763
1926
2090
2271
2453
2599
2746
2814
2883
2864
2845
2760
2675
2565
2455
2357
2259
2192
2125
2086
2047
2022
1998
1978
1958
1944
1930
1930
1931
1953
1976
2016
2056
2099
2143
2170
2198
2197
2197
2171
2145
2106
2067
2029
1992
1961
1931
1904
1878
1848
1819
1784
1749
1715
1681
1658
1636
1630
1625
1630
1635
1634
1633
1613
1593
1555
1518
1484
1450
1455
1461
1536
1611
1759
1908
2100
2292
2474
2657
2776
2896
2924
2952
2895
2838
2730
2623
2508
2393
2301
2209
2148
2087
2048
2010
1982
1954
1933
1912
1903
1895
1908
1922
1956
1991
2034
2078
2111
2144
2152
2160
2139
2119
2081
2044
2004
1964
1931
1898
1869
1840
1807
1775
1732
1689
1642
1595
1556
1518
1500
1483
1485
1488
1495
1502
1493
1484
1450
1416
1371
1326
1308
1290
1338
1387
1521
1656
1859
2063
2282
2501
2670
2839
2912
2985
2952
2920
2814
2708
2581
2454
2351
2248
2189
2130
2106
2083
2073
2063
2050
2038
2022
2006
1998
1990
2004
2018
2054
2090
2134
2178
2210
2242
2247
2253
2232
2211
2175
2140
2104
2068
2037
2006
1976
1946
1909
1872
1826
1780
1734
1689
1658
1627
1618
1609
1617
1625
1629
1634
1616
1599
1558
1517
1478
1439
1442
1446
1529
1613
1782
1951
2173
2395
2607
2820
2945
3071
3071
3071
3033
2996
2876
2757
2642
2528
2454
2380
2352
2324
2322
2320
2318
2317
2301
2285
2259
2233
2213
2194
2195
2197
2219
2241
2270
2299
2314
2330
2320
2310
2278
2246
2204
2163
2127
2091
2066
2041
2020
1999
1973
1947
1911
1875
1835
1796
1765
1735
1722
1710
1711
1713
1713
1713
1695
1678
1640
1602
1562
1523
1516
1509
1566
1623
1754
1886
2066
2247
2428
2609
2736
2864
2904
2923
2879
2808
2611
2505
2412
2268
2222
2188
2147
2131
2113
2083
2062
2042
2033
2025
2037
2050
2080
2111
2145
2180
2201
2222
2218
2214
2188
2163
2127
2091
2057
2024
1996
1968
1942
1916
1884
1853
1816
1779
1744
1710
1690
1670
1670
1670
1682
1694
1700
1707
1692
1677
1639
1602
1563
1524
1518
1513
1572
1632
1762
1893
2069
2245
2417
2589
2706
2824
2857
2890
2842
2794
2696
2598
2490
2382
2294
2206
2148
2090
2055
2021
1998
1975
1959
1943
1938
1933
1945
1957
1987
2018
2056
2095
2126
2158
2168
2178
2164
2150
2119
2089
2056
2023
1994
1966
1942
1919
1892
1866
1832
1799
1761
1724
1692
1661
1646
1631
1632
1633
1636
1639
1629
1620
1589
1558
1517
1476
1456
1436
1473
1510
1623
1736
1912
2088
2283
2478
2636
2794
2870
2947
2932
2917
2831
2745
2631
2517
2412
2307
2230
2154
2105
2056
2021
1987
1958
1930
1909
1889
1886
1884
1905
1927
1968
2009
2053
2098
2125
2153
2153
2154
2129
2105
2069
2033
1998
1963
1933
1903
1873
1844
1807
1770
1724
1678
1633
1589
1558
1528
1518
1509
1513
1517
1515
1514
1491
1469
1426
1383
1345
1307
1314
1321
1406
1491
1657
1824
2038
2253
2454
2656
2785
2914
2940
2966
2898
2830
2709
2589
2467
2346
2258
2170
2123
2077
2057
2037
2023
2010
1994
1979
1966
1954
1957
1960
1986
2012
2054
2096
2135
2175
2194
2214
2205
2196
2167
2138
2102
2067
2037
2007
1982
1957
1930
1903
1865
1828
1782
1737
1696
1655
1631
1607
1603
1600
1604
1609
1602
1595
1564
1534
1490
1447
1425
1404
1445
1486
1615
1744
1949
2154
2385
2617
2806
2996
3033
3071
3071
3071
2982
2894
2766
2638
2535
2433
2378
2323
2309
2296
2298
2300
2295
2290
2269
2249
2224
2200
2187
2175
2184
2194
2220
2247
2273
2299
2308
2317
2302
2288
2256
2224
2188
2153
2123
2093
2070
2047
2022
1998
1966
1934
1895
1856
1821
1786
1765
1745
1741
1737
1739
1742
1733
1725
1695
1665
1622
1580
1552
1524
1546
1569
1663
1758
1916
2075
2258
2441
2595
2750
2831
2912
2905
2899
2824
2749
2646
2543
2451
2359
2299
2239
2208
2177
2159
2141
2122
2104
2082
2061
2047
2033
2038
2043
2069
2095
2131
2168
2196
2224
2230
2237
2218
2199
2165
2132
2096
2061
2033
2005
1981
1958
1931
1905
1870
1835
1796
1758
1726
1695
1682
1670
1675
1680
1691
1702
1700
1699
1675
1651
1613
1576
1553
1531
1556
1582
1675
1768
1918
2069
2241
2413
2555
2698
2772
2847
2840
2833
2762
2691
2590
2489
2392
2296
2222
2149
2100
2052
2019
1987
1965
1943
1931
1919
1923
1928
1953
1978
2017
2057
2096
2136
2159
2183
2180
2178
2154
2130
2095
2060
2027
1994
1967
1941
1917
1893
1864
1836
1802
1769
1736
1703
1681
1660
1655
1650
1655
1661
1658
1656
1635
1614
1574
1535
1499
1464
1467
1470
1543
1617
1765
1914
2108
2303
2489
2675
2798
2921
2950
2979
2919
2860
2747
2635
2514
2394
2297
2201
2138
2075
2036
1997
1969
1941
1918
1896
1886
1876
1887
1899
1934
1970
2018
2066
2107
2149
2166
2183
2172
2161
2129
2097
2060
2023
1990
1957
1927
1897
1862
1828
1785
1742
1694
1646
1606
1567
1547
1527
1527
1527
1531
1536
1525
1515
1480
1446
1401
1357
1337
1318
1363
1408
1535
1663
1856
2050
2260
2470
2634
2799
2872
2946
2920
2895
2797
2699
2577
2455
2348
2242
2171
2100
2059
2018
1991
1965
1941
1917
1899
1882
1880
1879
1902
1926
1970
2015
2063
2112
2143
2174
2176
2179
2155
2132
2097
2062
2028
1995
1967
1940
1913
1886
1851
1817
1773
1729
1686
1644
1616
1588
1583
1578
1587
1597
1601
1606
1587
1569
1529
1490
1455
1420
1431
1443
1535
1627
1802
1978
2200
2423
2630
2837
2954
3071
3071
3071
3019
2968
2845
2723
2607
2492
2418
2344
2314
2285
2281
2277
2274
2271
2255
2240
2217
2194
2179
2165
2172
2179
2206
2233
2265
2298
2318
2338
2333
2329
2302
2275
2238
2202
2167
2133
2105
2078
2053
2028
1998
1968
1931
1895
1858
1822
1796
1770
1759
1749
1747
1745
1737
1730
1704
1679
1638
1598
1564
1531
1539
1547
1622
1698
1842
1987
2171
2355
2526
2698
2807
2916
2936
2956
2896
2836
2732
2628
2522
2417
2340
2264
2223
2182
2164
2146
2132
2119
2101
2084
2068
2052
2048
2044
2061
2078
2110
2143
2175
2208
2223
2239
2229
2219
2187
2156
2117
2078
2044
2010
1984
1959
1937
1915
1888
1861
1827
1794
1761
1729
1708
1688
1684
1681
1688
1695
1697
1700
1682
1665
1629
1594
1560
1527
1530
1534
1601
1668
1802
1937
2112
2287
2453
2620
2729
2838
2864
2890
2837
2785
2685
2586
2478
2371
2284
2198
2140
2083
2047
2011
1986
1962
1945
1928
1922
1917
1931
1945
1978
2012
2055
2098
2133
2169
2183
2197
2185
2174
2145
2117
2083
2050
2021
1992
1966
1940
1912
1884
1849
1814
1777
1740
1710
1681
1668
1656
1658
1660
1663
1666
1654
1642
1608
1575
1532
1490
1472
1455
1496
1537
1655
1773
1951
2130
2324
2518
2669
2821
2890
2959
2935
2911
2819
2728
2610
2492
2385
2279
2202
2125
2075
2026
1991
1957
1930
1904
1888
1873
1877
1882
1912
1942
1990
2039
2088
2137
2167
2197
2197
2197
2171
2145
2105
2066
2026
1987
1952
1917
1883
1849
1809
1770
1726
1682
1643
1604
1581
1558
1554
1550
1556
1563
1559
1556
1529
1503
1459
1416
1382
1348
1363
1379
1471
1564
1732
1900
2106
2313
2499
2686
2799
2912
2927
2943
2873
2804
2689
2574
2458
2343
2254
2166
2109
2052
2015
1978
1948
1918
1891
1865
1851
1838
1848
1858
1893
1928
1976
2025
2067
2109
2128
2147
2139
2131
2104
2078
2046
2015
1985
1955
1926
1898
1863
1829
1786
1743
1696
1650
1614
1579
1563
1547
1550
1553
1558
1564
1554
1544
1511
1478
1439
1400
1391
1382
1441
1500
1643
1787
1994
2202
2420
2639
2806
2973
3022
3071
3054
3037
2934
2832
2711
2591
2495
2400
2347
2295
2276
2257
2250
2244
2233
2222
2205
2188
2175
2163
2167
2172
2196
2221
2253
2286
2309
2333
2335
2337
2316
2295
2263
2231
2199
2168
2144
2120
2098
2077
2049
2022
1982
1943
1899
1855
1818
1781
1763
1745
1743
1741
1741
1742
1726
1711
1674
1637
1594
1551
1535
1520
1566
1613
1736
1860
2041
2222
2412
2602
2744
2887
2943
3000
2966
2932
2836
2741
2629
2517
2425
2334
2278
2223
2195
2168
2150
2133
2114
2095
2075
2056
2047
2038
2049
2060
2091
2123
2160
2197
2221
2245
2244
2243
2219
2195
2159
2123
2089
2056
2031
2006
1984
1963
1936
1909
1872
1835
1792
1750
1716
1683
1669
1655
1660
1665
1675
1685
1682
1679
1654
1630
1595
1560
1544
1528
1564
1601
1707
1813
1976
2139
2317
2496
2639
2782
2849
2916
2897
2878
2793
2709
2597
2486
2383
2280
2204
2129
2081
2034
2003
1973
1952
1931
1920
1910
1916
1922
1950
1979
2022
2066
2110
2155
2181
2208
2207
2206
2180
2155
2119
2083
2049
2015
1989
1963
1939
1915
1885
1856
1818
1780
1741
1702
1673
1645
1635
1626
1630
1634
1637
1640
1626
1612
1580
1548
1518
1488
1493
1499
1570
1641
1783
1925
2110
2296
2474
2652
2770
2888
2916
2945
2888
2832
2724
2617
2500
2383
2288
2193
2129
2065
2024
1984
1955
1927
1906
1886
1878
1871
1886
1901
1939
1977
2026
2076
2118
2160
2178
2197
2187
2178
2148
2119
2083
2048
2015
1983
1953
1923
1889
1855
1812
1770
1725
1680
1643
1607
1590
1574
1576
1578
1582
1587
1576
1565
1530
1496
1453
1410
1392
1375
1422
1469
1597
1726
1918
2110
2316
2522
2680
2838
2904
2971
2938
2906
2804
2702
2577
2452
2344
2236
2161
2087
2041
1996
1963
1930
1901
1873
1851
1830
1828
1827
1852
1878
1925
1973
2023
2073
2105
2137
2140
2143
2120
2097
2063
2029
1996
1964
1936
1908
1878
1849
1810
1771
1723
1675
1627
1579
1547
1515
1504
1494
1498
1502
1501
1501
1482
1463
1428
1393
1370
1347
1374
1402
1509
1617
1802
1988
2212
2436
2636
2836
2953
3071
3071
3071
3006
2941
2821
2701
2588
2475
2400
2325
2289
2254
2240
2227
2215
2204
2185
2167
2149
2132
2129
2126
2146
2166
2201
2237
2271
2306
2322
2338
2327
2317
2286
2255
2218
2181
2148
2116
2089
2062
2034
2006
1971
1937
1896
1855
1818
1782
1759
1737
1732
1728
1730
1732
1723
1715
1686
1657
1615
1574
1549
1524
1551
1579
1681
1783
1951
2120
2314
2508
2672
2836
2922
3009
3002
2996
2915
2835
2723
2611
2510
2410
2344
2279
2246
2214
2198
2183
2167
2151
2130
2109
2091
2074
2073
2072
2092
2112
2146
2180
2210
2240
2250
2261
2247
2233
2202
2172
2137
2102
2073
2045
2022
1999
1974
1950
1917
1885
1846
1807
1770
1734
1711
1689
1684
1680
1684
1688
1684
1680
1656
1633
1594
1556
1528
1531
1614
1698
1847
1997
2180
2363
2528
2694
2794
2895
2909
2923
2860
2798
2693
2588
2479
2370
2284
2198
2141
2084
2047
2010
1983
1957
1938
1919
1914
1909
1925
1942
1979
2017
2063
2109
2146
2183
2196
2209
2195
2182
2150
2119
2084
2049
2019
1989
1963
1938
1910
1883
1848
1814
1775
1736
1704
1673
1657
1642
1643
1644
1648
1653
1644
1636
1607
1579
1543
1507
1493
1480
1523
1567
1683
1799
1973
2147
2336
2526
2675
2825
2894
2964
2943
2922
2832
2743
2625
2508
2398
2289
2206
2124
2068
2012
1973
1934
1905
1877
1862
1847
1852
1858
1889
1921
1970
2019
2069
2119
2151
2183
2187
2192
2171
2151
2118
2086
2052
2019
1989
1960
1928
1897
1858
1820
1775
1731
1690
1649
1622
1595
1587
1580
1582
1585
1579
1574
1549
1524
1483
1442
1412
1383
1401
1420
1513
1607
1773
1940
2142
2344
2525
2707
2816
2925
2938
2951
2880
2810
2695
2581
2464
2348
2257
2167
2107
2048
2007
1967
1934
1902
1875
1849
1836
1824
1836
1848
1884
1920
1968
2017
2057
2097
2114
2131
2121
2112
2084
2057
2024
1992
1962
1932
1901
1871
1834
1797
1751
1705
1658
1612
1577
1542
1529
1516
1521
1526
1532
1539
1527
1516
1481
1446
1406
1367
1362
1357
1423
1489
1640
1792
2003
2215
2432
2649
2807
2966
3018
3071
3032
2994
2887
2781
2661
2541
2449
2357
2305
2253
2230
2208
2193
2178
2158
2138
2115
2092
2081
2070
2082
2094
2128
2162
2202
2243
2270
2297
2298
2299
2277
2255
2221
2187
2155
2124
2098
2072
2047
2022
1989
1956
1914
1872
1830
1788
1760
1732
1724
1716
1722
1728
1728
1729
1707
1685
1641
1598
1556
1514
1512
1511
1583
1656
1808
1961
2162
2363
2556
2749
2877
3005
3036
3067
3008
2949
2838
2728
2614
2501
2418
2336
2291
2247
2228
2209
2195
2181
2161
2142
2119
2097
2085
2074
2083
2093
2120
2148
2180
2212
2230
2249
2244
2239
2213
2188
2154
2120
2089
2059
2036
2013
1991
1970
1942
1915
1878
1842
1803
1764
1736
1708
1698
1689
1695
1702
1708
1714
1703
1693
1660
1628
1590
1553
1542
1531
1579
1628
1747
1867
2039
2211
2389
2568
2701
2835
2886
2938
2903
2869
2774
2680
2565
2451
2352
2253
2185
2117
2076
2036
2010
1985
1966
1947
1936
1926
1931
1937
1963
1990
2031
2073
2114
2155
2178
2202
2199
2196
2171
2146
2111
2077
2045
2014
1988
1963
1939
1916
1887
1859
1824
1790
1756
1722
1700
1678
1672
1666
1669
1672
1669
1667
1646
1626
1591
1556
1529
1503
1516
1530
1608
1687
1829
1972
2149
2326
2488
2650
2751
2853
2872
2891
2835
2780
2681
2583
2479
2375
2289
2204
2144
2084
2041
1998
1965
1933
1909
1885
1878
1871
1887
1904
1943
1982
2031
2080
2120
2160
2176
2192
2181
2171
2142
2113
2079
2045
2014
1983
1955
1927
1896
1865
1828
1791
1752
1713
1682
1652
1637
1623
1622
1622
1620
1619
1604
1589
1555
1521
1483
1446
1437
1429
1483
1537
1665
1794
1978
2163
2354
2545
2688
2831
2887
2943
2907
2872
2772
2673
2553
2434
2331
2228
2156
2085
2040
1996
1964
1932
1906
1880
1862
1845
1847
1849
1876
1903
1947
1992
2037
2082
2108
2134
2131
2128
2101
2075
2038
2002
1967
1933
1904
1875
1845
1815
1777
1739
1694
1649
1606
1564
1537
1510
1502
1495
1498
1502
1497
1492
1467
1443
1405
1367
1344
1322
1354
1387
1499
1612
1798
1985
2204
2423
2613
2803
2909
3016
3019
3023
2942
2862
2744
2627
2519
2411
2340
2269
2234
2200
2185
2170
2156
2142
2123
2105
2091
2077
2081
2086
2112
2139
2179
2219
2253
2288
2300
2312
2298
2285
2253
2222
2187
2153
2124
2095
2069
2044
2014
1985
1945
1906
1861
1816
1777
1739
1718
1698
1697
1696
1700
1704
1694
1685
1653
1621
1578
1536
1517
1498
1539
1581
1704
1828
2017
2207
2417
2627
2794
2962
3016
3071
3063
3056
2957
2859
2736
2613
2509
2406
2343
2281
2255
2229
2218
2208
2195
2183
2163
2143
2125
2108
2106
2104
2123
2142
2173
2204
2231
2258
2264
2271
2253
2236
2202
2169
2132
2095
2065
2035
2011
1987
1962
1937
1906
1875
1839
1803
1772
1741
1724
1707
1706
1706
1711
1716
1710
1705
1678
1652
1614
1576
1551
1527
1549
1572
1662
1753
1904
2055
2231
2408
2559
2711
2794
2878
2877
2877
2807
2737
2633
2530
2430
2330
2255
2180
2133
2086
2057
2029
2008
1988
1974
1961
1959
1958
1976
1995
2031
2067
2108
2150
2180
2210
2216
2223
2205
2187
2154
2121
2086
2051
2021
1992
1966
1941
1913
1886
1852
1818
1783
1748
1720
1693
1681
1669
1671
1673
1676
1680
1669
1659
1630
1601
1566
1532
1522
1512
1556
1600
1711
1823
1986
2150
2324
2498
2633
2768
2828
2888
2865
2842
2757
2673
2564
2456
2356
2256
2181
2107
2058
2009
1976
1944
1922
1900
1890
1881
1890
1900
1930
1961
2005
2050
2093
2137
2162
2188
2187
2186
2163
2141
2108
2075
2042
2010
1982
1954
1925
1897
1863
1830
1792
1754
1718
1683
1661
1639
1634
1629
1632
1636
1628
1621
1595
1570
1531
1492
1463
1434
1451
1469
1558
1648
1807
1967
2161
2356
2531
2706
2810
2915
2926
2938
2868
2799
2685
2572
2457
2343
2253
2163
2104
2045
2005
1966
1936
1907
1884
1862
1855
1849
1865
1882
1920
1959
2005
2052
2087
2122
2131
2141
2124
2108
2075
2042
2006
1971
1938
1905
1872
1840
1800
1760
1712
1664
1615
1566
1530
1495
1482
1469
1473
1478
1481
1484
1467
1451
1412
1373
1334
1296
1297
1298
1375
1453
1616
1780
1999
2219
2436
2653
2804
2955
3003
3051
2999
2948
2835
2723
2602
2481
2388
2295
2242
2189
2163
2138
2122
2106
2088
2071
2058
2045
2047
2050
2076
2102
2145
2188
2229
2270
2290
2310
2302
2295
2266
2237
2201
2166
2135
2104
2080
2056
2028
2001
1962
1924
1876
1828
1782
1737
1708
1680
1675
1670
1677
1684
1683
1683
1659
1635
1591
1548
1514
1481
1498
1515
1611
1708
1882
2056
2268
2480
2669
2859
2965
3071
3071
3071
3004
2937
2819
2702
2592
2482
2409
2337
2304
2271
2260
2250
2242
2234
2218
2203
2185
2167
2158
2149
2157
2166
2188
2210
2233
2256
2265
2274
2263
2252
2225
2199
2167
2136
2108
2081
2057
2034
2008
1982
1947
1913
1871
1829
1790
1751
1726
1701
1694
1688
1692
1697
1695
1693
1672
1651
1612
1574
1541
1509
1515
1521
1593
1666
1807
1948
2129
2310
2482
2654
2767
2881
2909
2937
2885
2834
2734
2635
2528
2422
2338
2254
2202
2151
2122
2094
2075
2057
2041
2025
2015
2006
2010
2015
2037
2060
2093
2126
2156
2186
2197
2209
2197
2186
2157
2128
2094
2060
2030
2000
1975
1951
1925
1900
1867
1834
1795
1756
1721
1687
1668
1649
1648
1648
1657
1666
1666
1667
1647
1627
1590
1554
1527
1500
1516
1533
1618
1703
1854
2005
2188
2372
2536
2700
2796
2893
2901
2910
2841
2773
2663
2553
2441
2329
2241
2153
2095
2038
2002
1966
1942
1918
1904
1890
1891
1892
1915
1938
1980
2022
2070
2118
2153
2188
2198
2209
2192
2176
2144
2112
2076
2041
2010
1979
1949
1920
1887
1854
1814
1775
1735
1696
1666
1637
1625
1614
1616
1618
1617
1617
1600
1584
1549
1515
1479
1444
1442
1441
1505
1570
1708
1847
2036
2225
2412
2600
2731
2863
2905
2948
2901
2854
2751
2648
2531
2414
2317
2221
2155
2089
2048
2007
1977
1947
1923
1899
1885
1872
1879
1887
1917
1948
1993
2038
2078
2118
2136
2154
2144
2134
2103
2073
2035
1998
1964
1930
1899
1868
1833
1798
1754
1711
1663
1615
1574
1533
1512
1491
1490
1490
1497
1505
1498
1492
1462
1433
1391
1349
1329
1309
1349
1390
1514
1639
1834
2029
2246
2463
2639
2815
2900
2986
2968
2950
2854
2759
2635
2512
2406
2300
2233
2167
2136
2106
2091
2076
2061
2047
2031
2015
2008
2001
2015
2030
2066
2103
2148
2194
2228
2262
2270
2278
2259
2240
2205
2170
2133
2097
2065
2033
2003
1973
1937
1902
1858
1815
1771
1728
1697
1666
1655
1645
1650
1655
1658
1661
1644
1627
1587
1548
1509
1470
1469
1468
1542
1616
1773
1930
2142
2355
2564
2774
2918
3063
3067
3071
3043
3015
2901
2787
2668
2550
2465
2380
2339
2299
2289
2280
2279
2278
2269
2261
2245
2229
2215
2202
2203
2204
2220
2236
2257
2279
2290
2302
2294
2287
2262
2238
2207
2176
2147
2118
2094
2071
2046
2022
1989
1956
1913
1871
1828
1785
1755
1726
1717
1709
1717
1726
1733
1741
1728
1716
1678
1641
1595
1550
1532
1514
1557
1601
1719
1837
2009
2182
2362
2543
2678
2814
2868
2922
2891
2861
2773
2686
2583
2480
2395
2311
2256
2202
2171
2140
2118
2096
2073
2051
2030
2010
2003
1997
2011
2026
2058
2091
2127
2164
2186
2208
2205
2203
2179
2155
2120
2086
2054
2023
1998
1973
1950
1928
1899
1870
1833
1797
1759
1722
1697
1672
1666
1660
1669
1678
1685
1692
1680
1669
1636
1604
1568
1533
1527
1522
1577
1633
1757
1882
2054
2226
2396
2567
2687
2807
2844
2881
2837
2793
2696
2600
2491
2382
2291
2201
2141
2081
2045
2009
1985
1962
1946
1930
1924
1918
1930
1942
1973
2005
2047
2089
2125
2161
2176
2191
2180
2169
2139
2110
2075
2040
2009
1978
1952
1926
1897
1869
1834
1800
1761
1722
1690
1658
1642
1627
1629
1632
1638
1645
1638
1632
1603
1575
1533
1492
1468
1445
1476
1508
1616
1725
1899
2074
2271
2468
2629
2790
2868
2947
2929
2912
2822
2733
2615
2498
2394
2290
2219
2149
2108
2068
2041
2014
1987
1961
1935
1910
1898
1886
1899
1912
1949
1986
2032
2078
2112
2146
2153
2161
2140
2119
2081
2044
2003
1963
1927
1891
1858
1825
1788
1751
1708
1666
1626
1586
1559
1532
1524
1516
1519
1522
1517
1513
1486
1460
1414
1369
1330
1292
1300
1308
1396
1484
1653
1823
2039
2256
2458
2661
2789
2917
2941
2966
2896
2827
2707
2588
2469
2350
2266
2183
2141
2099
2082
2066
2054
2042
2025
2009
1993
1978
1977
1977
1999
2022
2062
2102
2142
2182
2203
2224
2218
2212
2185
2159
2125
2092
2061
2031
2005
1979
1949
1920
1881
1842
1796
1751
1712
1673
1652
1632
1632
1633
1641
1650
1645
1641
1611
1581
1536
1491
1465
1439
1474
1509
1631
1753
1950
2147
2370
2594
2777
2961
3016
3071
3071
3071
2979
2887
2766
2645
2547
2450
2398
2346
2331
2317
2315
2313
2301
2290
2265
2240
2214
2189
2180
2172
2188
2204
2235
2267
2295
2323
2329
2336
2316
2297
2261
2225
2188
2152
2124
2096
2075
2054
2029
2005
1969
1934
1890
1846
1807
1768
1746
1725
1724
1723
1729
1736
1729
1723
1691
1659
1610
1562
1527
1493
1511
1530
1625
1720
1884
2049
2241
2433
2595
2758
2844
2931
2925
2919
2841
2763
2655
2548
2452
2357
2296
2235
2204
2174
2158
2143
2126
2109
2088
2067
2051
2036
2039
2042
2066
2090
2125
2161
2189
2217
2223
2229
2210
2191
2156
2122
2086
2050
2021
1992
1969
1946
1921
1896
1862
1829
1791
1754
1723
1692
1679
1666
1671
1677
1688
1699
1696
1694
1668
1642
1601
1560
1533
1507
1530
1554
1648
1742
1898
2054
2233
2413
2562
2712
2789
2866
2856
2846
2767
2689
2580
2471
2369
2268
2196
2125
2083
2042
2020
1998
1984
1971
1963
1955
1957
1960
1978
1996
2028
2060
2093
2126
2146
2167
2167
2167
2148
2129
2100
2072
2044
2016
1990
1965
1938
1911
1876
1842
1801
1760
1722
1684
1660
1637
1634
1631
1640
1650
1651
1653
1634
1615
1574
1533
1494
1455
1454
1453
1522
1592
1736
1881
2072
2264
2449
2634
2758
2882
2915
2948
2895
2842
2736
2631
2516
2402
2309
2217
2157
2097
2060
2024
1999
1974
1954
1934
1924
1914
1921
1929
1957
1985
2024
2063
2095
2128
2140
2153
2140
2128
2097
2067
2031
1995
1962
1929
1898
1867
1832
1798
1756
1715
1671
1628
1594
1560
1544
1528
1529
1531
1533
1535
1520
1506
1467
1428
1380
1332
1311
1290
1334
1379
1507
1635
1830
2025
2237
2449
2615
2782
2857
2933
2908
2883
2785
2688
2566
2445
2342
2240
2175
2111
2079
2047
2029
2012
1994
1976
1958
1940
1934
1928
1944
1961
1999
2037
2082
2128
2159
2191
2196
2201
2180
2159
2124
2089
2054
2019
1991
1963
1936
1909
1876
1844
1802
1760
1717
1675
1645
1616
1607
1598
1604
1610
1613
1617
1599
1582
1543
1504
1468
1433
1440
1448
1532
1617
1785
1954
2172
2390
2598
2807
2939
3071
3071
3071
3027
2984
2866
2749
2635
2522
2448
2375
2347
2320
2320
2320
2321
2322
2310
2298
2275
2252
2234
2216
2215
2215
2234
2253
2278
2304
2319
2335
2329
2324
2299
2274
2241
2208
2177
2147
2121
2095
2068
2042
2006
1971
1926
1882
1837
1793
1763
1733
1725
1717
1724
1731
1735
1740
1723
1706
1665
1625
1582
1539
1530
1521
1578
1635
1767
1900
2081
2262
2441
2621
2744
2868
2904
2941
2893
2846
2748
2651
2547
2444
2367
2290
2248
2206
2188
2170
2158
2147
2131
2115
2099
2084
2079
2074
2087
2101
2129
2157
2185
2213
2223
2234
2220
2207
2173
2140
2101
2062
2030
1998
1976
1955
1937
1919
1895
1872
1840
1808
1774
1740
1716
1693
1686
1680
1685
1691
1693
1695
1678
1662
1626
1591
1555
1519
1516
1514
1573
1633
1761
1890
2062
2235
2404
2574
2691
2808
2843
2878
2832
2787
2691
2596
2488
2380
2291
2203
2143
2084
2049
2014
1992
1971
1957
1944
1941
1938
1952
1967
1999
2032
2072
2113
2145
2177
2187
2198
2183
2168
2136
2104
2068
2033
2003
1973
1948
1923
1897
1871
1837
1804
1766
1728
1696
1664
1649
1634
1637
1640
1647
1654
1649
1644
1617
1590
1548
1507
1482
1458
1486
1515
1619
1724
1894
2065
2259
2454
2615
2776
2857
2939
2925
2912
2825
2738
2620
2502
2394
2287
2212
2138
2095
2052
2027
2002
1982
1963
1948
1934
1934
1935
1956
1977
2017
2057
2099
2141
2166
2192
2188
2184
2153
2123
2080
2037
1997
1957
1925
1894
1866
1839
1806
1773
1731
1690
1647
1605
1574
1544
1534
1524
1529
1535
1537
1539
1520
1502
1461
1420
1379
1339
1338
1337
1411
1485
1640
1795
2002
2209
2408
2607
2739
2872
2903
2934
2872
2810
2693
2576
2456
2337
2248
2159
2110
2062
2038
2014
1996
1978
1957
1936
1918
1901
1900
1900
1925
1951
1994
2038
2081
2125
2147
2170
2163
2157
2127
2097
2058
2019
1983
1948
1918
1888
1857
1827
1790
1753
1711
1670
1634
1599
1581
1563
1564
1565
1572
1580
1574
1569
1539
1510
1468
1427
1405
1384
1424
1465
1590
1716
1916
2116
2341
2566
2753
2940
3005
3071
3071
3071
2987
2903
2783
2664
2565
2467
2412
2358
2342
2326
2326
2326
2319
2313
2293
2274
2251
2228
2217
2206
2215
2225
2248
2272
2294
2317
2323
2329
2312
2296
2265
2234
2200
2166
2137
2108
2084
2060
2033
2006
1971
1936
1896
1856
1821
1786
1767
1748
1745
1742
1743
1744
1732
1720
1685
1651
1605
1560
1533
1507
1535
1564
1669
1775
1945
2116
2309
2503
2662
2822
2902
2982
2968
2954
2869
2784
2672
2560
2464
2368
2311
2254
2233
2212
2207
2202
2194
2186
2167
2149
2128
2108
2098
2088
2097
2106
2128
2150
2171
2193
2199
2206
2192
2179
2150
2122
2090
2059
2031
2004
1981
1958
1932
1907
1874
1842
1806
1771
1741
1712
1698
1685
1687
1690
1696
1702
1695
1688
1657
1627
1583
1539
1510
1481
1502
1524
1618
1713
1873
2033
2219
2406
2566
2726
2813
2901
2898
2896
2820
2744
2634
2525
2421
2317
2242
2168
2124
2081
2056
2031
2011
1991
1974
1957
1950
1943
1955
1968
2001
2034
2076
2118
2150
2183
2192
2201
2183
2165
2129
2094
2053
2012
1976
1940
1909
1878
1847
1817
1784
1752
1721
1691
1670
1649
1644
1639
1644
1650
1651
1653
1636
1619
1583
1547
1510
1473
1468
1464
1524
1584
1718
1853
2038
2223
2409
2596
2729
2863
2908
2954
2911
2868
2767
2667
2551
2436
2340
2244
2180
2116
2077
2039
2011
1984
1960
1937
1922
1908
1913
1919
1947
1976
2021
2066
2107
2149
2169
2189
2178
2168
2134
2100
2057
2015
1977
1940
1909
1879
1850
1821
1786
1751
1710
1670
1633
1596
1574
1552
1547
1543
1546
1550
1542
1535
1506
1477
1435
1393
1367
1342
1371
1401
1510
1620
1801
1982
2191
2401
2577
2754
2847
2940
2932
2924
2835
2747
2623
2500
2387
2274
2195
2117
2072
2028
2001
1974
1951
1929
1908
1888
1880
1873
1889
1905
1944
1983
2030
2078
2112
2147
2153
2159
2136
2114
2075
2036
1997
1958
1926
1894
1867
1840
1807
1775
1734
1693
1649
1606
1574
1542
1530
1519
1526
1533
1540
1548
1536
1525
1490
1455
1417
1380
1379
1379
1453
1527
1687
1847
2066
2285
2504
2723
2877
3032
3051
3071
3040
3010
2896
2782
2663
2544
2460
2376
2338
2300
2293
2287
2287
2287
2277
2267
2248
2230
2216
2202
2205
2208
2229
2251
2279
2307
2323
2339
2333
2327
2300
2273
2237
2202
2169
2136
2110
2085
2060
2036
2004
1973
1933
1894
1854
1814
1786
1758
1750
1742
1747
1752
1752
1752
1730
1708
1663
1619
1573
1528
1519
1511
1572
1634
1773
1913
2103
2294
2482
2670
2799
2928
2966
3005
2956
2907
2806
2705
2598
2491
2412
2333
2291
2249
2232
2215
2202
2189
2169
2150
2126
2103
2088
2074
2079
2085
2110
2136
2167
2199
2219
2240
2238
2236
2213
2191
2158
2125
2092
2060
2032
2005
1978
1952
1920
1888
1848
1809
1770
1732
1706
1680
1673
1667
1675
1684
1690
1696
1683
1671
1636
1602
1562
1523
1512
1501
1550
1600
1721
1842
2014
2187
2364
2542
2672
2803
2853
2903
2869
2836
2745
2655
2547
2439
2346
2254
2191
2128
2089
2050
2023
1997
1977
1957
1946
1935
1942
1950
1979
2008
2050
2093
2132
2172
2190
2209
2200
2191
2161
2131
2095
2059
2029
1999
1977
1956
1935
1914
1885
1857
1818
1780
1741
1702
1675
1649
1642
1636
1641
1647
1648
1649
1630
1611
1574
1537
1505
1473
1482
1492
1571
1651
1802
1953
2143
2333
2509
2685
2794
2904
2921
2939
2874
2810
2699
2588
2473
2358
2269
2180
2123
2066
2032
1998
1973
1949
1930
1912
1905
1899
1913
1927
1962
1998
2044
2091
2130
2169
2184
2200
2187
2174
2141
2108
2068
2028
1991
1954
1919
1885
1850
1815
1775
1736
1696
1656
1625
1594
1580
1566
1565
1565
1564
1564
1548
1533
1498
1464
1426
1388
1380
1372
1426
1481
1613
1745
1934
2123
2321
2519
2669
2819
2881
2944
2913
2882
2784
2687
2567
2447
2342
2238
2166
2094
2050
2006
1975
1945
1920
1895
1876
1858
1856
1855
1876
1898
1938
1978
2019
2061
2087
2114
2114
2115
2093
2072
2040
2008
1976
1945
1916
1887
1856
1825
1784
1744
1696
1649
1605
1562
1536
1511
1508
1505
1515
1525
1527
1530
1509
1489
1450
1412
1383
1355
1377
1399
1502
1606
1788
1970
2192
2415
2615
2815
2935
3055
3063
3071
3000
2929
2810
2692
2581
2470
2398
2326
2295
2265
2257
2249
2242
2236
2220
2205
2188
2171
2166
2161
2177
2193
2225
2258
2290
2323
2338
2353
2343
2333
2302
2272
2233
2195
2159
2123
2092
2062
2030
1998
1960
1923
1880
1838
1801
1764
1742
1721
1717
1713
1716
1719
1712
1706
1677
1649
1607
1566
1538
1511
1534
1558
1657
1756
1925
2094
2294
2494
2667
2841
2938
3036
3036
3037
2958
2879
2762
2646
2538
2431
2361
2291
2259
2228
2217
2207
2196
2186
2167
2149
2128
2107
2099
2091
2104
2118
2148
2179
2210
2241
2256
2271
2260
2249
2217
2186
2147
2108
2074
2041
2015
1989
1965
1942
1912
1883
1846
1810
1773
1737
1712
1688
1681
1674
1678
1682
1680
1678
1657
1637
1598
1560
1528
1496
1503
1511
1586
1662
1807
1953
2137
2322
2494
2666
2776
2886
2908
2930
2871
2812
2707
2603
2493
2384
2298
2213
2159
2106
2074
2043
2020
1998
1980
1962
1953
1945
1955
1965
1995
2026
2067
2108
2144
2180
2194
2209
2199
2189
2160
2131
2097
2063
2031
1999
1969
1940
1906
1873
1833
1794
1752
1710
1677
1644
1630
1616
1620
1625
1634
1643
1638
1634
1606
1579
1540
1502
1483
1464
1498
1533
1641
1749
1919
2089
2278
2468
2623
2779
2857
2936
2925
2914
2832
2751
2637
2524
2415
2306
2223
2141
2085
2030
1993
1956
1930
1905
1892
1880
1886
1893
1923
1953
1999
2045
2090
2136
2163
2191
2191
2192
2169
2146
2111
2077
2043
2010
1980
1951
1921
1891
1854
1817
1773
1729
1687
1646
1619
1593
1586
1580
1586
1592
1589
1587
1563
1539
1494
1450
1411
1372
1377
1382
1463
1545
1706
1868
2075
2283
2479
2675
2801
2927
2953
2980
2914
2849
2731
2613
2489
2366
2270
2174
2114
2054
2018
1983
1957
1932
1910
1889
1877
1865
1873
1881
1911
1942
1985
2029
2065
2102
2116
2131
2118
2106
2074
2043
2006
1970
1937
1904
1873
1842
1805
1768
1721
1675
1625
1576
1536
1497
1480
1464
1468
1473
1484
1495
1489
1483
1452
1421
1379
1338
1323
1308
1361
1414
1556
1698
1910
2123
2352
2582
2761
2940
3005
3071
3053
3035
2932
2829
2705
2581
2482
2383
2328
2274
2254
2234
2226
2219
2206
2193
2172
2151
2135
2120
2123
2127
2153
2179
2214
2250
2277
2305
2309
2313
2293
2273
2239
2206
2173
2140
2113
2086
2060
2035
2002
1970
1927
1885
1840
1796
1763
1730
1718
1707
1712
1718
1723
1728
1712
1697
1657
1617
1572
1527
1515
1503
1562
1622
1765
1908
2109
2311
2515
2720
2865
3011
3041
3071
3031
2991
2879
2767
2647
2527
2438
2350
2306
2263
2250
2237
2231
2225
2210
2195
2171
2148
2129
2111
2111
2111
2131
2152
2181
2211
2230
2250
2248
2246
2222
2198
2163
2129
2098
2067
2044
2022
2003
1984
1958
1933
1895
1858
1816
1774
1740
1707
1695
1683
1690
1697
1709
1721
1716
1711
1680
1650
1604
1559
1531
1504
1531
1559
1661
1763
1927
2092
2276
2460
2609
2758
2829
2901
2884
2867
2784
2701
2592
2484
2387
2291
2224
2158
2120
2082
2058
2035
2016
1997
1982
1967
1966
1965
1984
2003
2039
2076
2116
2156
2182
2208
2208
2209
2186
2164
2129
2095
2061
2028
2001
1975
1951
1927
1899
1872
1837
1803
1767
1732
1707
1682
1672
1663
1666
1669
1668
1668
1650
1633
1598
1564
1532
1500
1501
1503
1567
1631
1763
1895
2070
2246
2418
2590
2709
2828
2864
2901
2857
2813
2717
2621
2512
2403
2310
2217
2152
2087
2044
2001
1971
1941
1919
1897
1888
1880
1892
1904
1938
1973
2020
2067
2109
2152
2173
2195
2189
2183
2155
2128
2093
2058
2025
1993
1964
1936
1906
1877
1843
1809
1771
1733
1700
1667
1648
1630
1626
1622
1621
1621
1608
1595
1562
1530
1489
1448
1426
1405
1439
1474
1584
1695
1872
2050
2250
2451
2617
2784
2870
2956
2945
2935
2848
2762
2641
2520
2405
2291
2206
2122
2067
2013
1977
1941
1914
1887
1869
1852
1851
1851
1874
1897
1939
1982
2027
2073
2102
2131
2132
2133
2109
2086
2049
2013
1977
1941
1910
1880
1849
1819
1780
1741
1693
1645
1597
1549
1515
1482
1470
1459
1463
1468
1470
1472
1455
1438
1402
1366
1335
1304
1318
1333
1424
1516
1689
1863
2084
2305
2515
2725
2863
3001
3035
3070
3009
2949
2836
2723
2606
2490
2404
2319
2272
2225
2204
2183
2167
2152
2134
2117
2101
2086
2085
2084
2105
2126
2163
2200
2236
2272
2289
2307
2299
2292
2266
2240
2207
2175
2146
2118
2092
2067
2037
2007
1965
1924
1873
1822
1775
1728
1700
1672
1667
1663
1672
1681
1681
1682
1659
1637
1596
1555
1524
1493
1512
1532
1631
1731
1906
2082
2294
2506
2692
2879
2975
3071
3071
3071
2997
2924
2802
2681
2570
2460
2389
2318
2288
2258
2249
2240
2230
2220
2200
2180
2157
2135
2124
2113
2124
2136
2164
2192
2221
2251
2263
2276
2263
2251
2219
2187
2149
2111
2079
2047
2022
1998
1975
1952
1921
1891
1852
1813
1775
1738
1714
1691
1688
1685
1695
1705
1710
1716
1700
1684
1646
1609
1571
1533
1530
1528
1591
1655
1791
1927
2108
2289
2464
2640
2757
2874
2904
2934
2882
2830
2728
2627
2518
2410
2324
2239
2186
2133
2102
2071
2048
2025
2004
1984
1972
1960
1966
1972
2001
2030
2073
2117
2155
2194
2211
2228
2216
2205
2173
2141
2103
2065
2033
2002
1978
1954
1931
1908
1877
1847
1809
1772
1736
1701
1680
1660
1658
1657
1665
1674
1674
1675
1654
1633
1594
1556
1526
1497
1511
1526
1610
1695
1846
1997
2181
2365
2529
2693
2789
2886
2894
2903
2835
2767
2659
2551
2442
2334
2249
2165
2108
2052
2014
1977
1949
1921
1901
1882
1878
1875
1894
1913
1954
1996
2045
2095
2133
2172
2185
2199
2186
2173
2142
2111
2076
2042
2011
1981
1953
1926
1895
1864
1826
1789
1749
1709
1677
1646
1630
1615
1614
1613
1610
1607
1590
1574
1538
1503
1465
1428
1421
1414
1471
1529
1662
1796
1986
2177
2374
2571
2718
2866
2924
2983
2947
2912
2811
2710
2586
2463
2355
2247
2170
2094
2045
1997
1964
1931
1905
1880
1864
1849
1852
1856
1883
1911
1955
1999
2043
2088
2114
2140
2138
2137
2112
2087
2051
2015
1978
1941
1907
1874
1838
1802
1759
1717
1669
1622
1581
1540
1516
1492
1489
1486
1491
1497
1493
1489
1462
1436
1396
1357
1333
1309
1340
1372
1484
1597
1783
1969
2186
2404
2591
2779
2884
2989
2991
2994
2913
2832
2713
2594
2483
2373
2299
2225
2187
2150
2132
2115
2100
2086
2069
2053
2043
2034
2043
2053
2085
2117
2161
2206
2243
2281
2294
2308
2293
2279
2246
2214
2176
2139
2107
2076
2048
2020
1988
1957
1917
1877
1832
1788
1751
1715
1697
1680
1681
1682
1687
1693
1682
1672
1637
1603
1558
1513
1492
1472
1514
1557
1684
1812
2007
2203
2418
2634
2805
2977
3024
3071
3069
3067
2968
2870
2749
2629
2530
2432
2375
2318
2295
2273
2262
2252
2236
2221
2196
2172
2150
2129
2125
2121
2139
2158
2189
2221
2247
2274
2279
2285
2266
2248
2214
2180
2145
2110
2083
2056
2034
2013
1987
1962
1925
1889
1845
1801
1762
1723
1702
1681
1682
1683
1693
1704
1705
1707
1685
1664
1625
1587
1558
1529
1545
1562
1648
1734
1885
2037
2218
2400
2558
2717
2807
2897
2900
2903
2832
2762
2655
2549
2447
2345
2271
2197
2153
2110
2085
2061
2043
2025
2009
1994
1988
1982
1993
2005
2035
2066
2104
2143
2173
2203
2211
2219
2202
2186
2154
2123
2089
2056
2029
2002
1979
1957
1932
1908
1874
1841
1803
1765
1732
1700
1684
1669
1671
1673
1681
1689
1686
1683
1658
1633
1596
1559
1537
1516
1544
1572
1669
1767
1924
2082
2261
2440
2588
2736
2811
2887
2875
2864
2785
2706
2597
2488
2386
2284
2208
2132
2083
2034
2001
1968
1943
1918
1902
1886
1888
1891
1917
1943
1987
2032
2079
2127
2157
2188
2191
2194
2171
2148
2113
2079
2046
2013
1987
1961
1937
1914
1884
1854
1815
1777
1735
1694
1663
1633
1622
1611
1614
1618
1617
1617
1601
1585
1550
1515
1481
1448
1450
1452
1522
1593
1739
1885
2080
2275
2464
2653
2782
2911
2945
2980
2925
2870
2758
2647
2524
2401
2299
2197
2127
2057
2011
1966
1934
1903
1881
1859
1851
1844
1860
1876
1915
1955
2005
2055
2095
2136
2150
2164
2148
2133
2098
2064
2026
1989
1958
1928
1902
1877
1846
1816
1773
1731
1680
1630
1586
1542
1518
1494
1493
1493
1502
1512
1509
1506
1478
1450
1406
1362
1336
1311
1346
1381
1501
1622
1817
2012
2232
2453
2635
2817
2908
2999
2984
2969
2872
2776
2648
2521
2409
2297
2226
2155
2121
2087
2072
2058
2045
2032
2019
2006
2002
1998
2015
2032
2070
2108
2154
2200
2233
2267
2274
2281
2261
2241
2206
2172
2137
2102
2073
2044
2017
1990
1955
1920
1875
1830
1781
1733
1696
1660
1645
1631
1635
1640
1646
1652
1639
1627
1590
1554
1513
1472
1465
1458
1522
1587
1737
1887
2097
2307
2521
2735
2889
3044
3057
3071
3049
3028
2914
2800
2677
2554
2463
2373
2327
2282
2270
2259
2257
2256
2247
2238
2219
2201
2185
2169
2168
2168
2187
2206
2234
2262
2281
2301
2299
2298
2274
2251
2215
2179
2144
2110
2083
2057
2036
2015
1989
1963
1928
1893
1852
1811
1776
1742
1724
1706
1705
1704
1707
1711
1701
1692
1661
1631
1590
1550
1530
1511
1546
1581
1688
1796
1963
2131
2316
2501
2649
2798
2867
2937
2917
2898
2811
2725
2613
2502
2404
2306
2242
2178
2144
2110
2091
2073
2057
2041
2026
2012
2007
2003
2018
2033
2066
2099
2137
2176
2201
2227
2227
2228
2204
2180
2143
2107
2073
2039
2013
1988
1968
1948
1923
1898
1863
1829
1790
1751
1719
1688
1676
1664
1670
1676
1686
1696
1691
1686
1658
1630
1591
1552
1534
1516
1553
1590
1698
1807
1971
2136
2314
2492
2630
2768
2828
2888
2862
2837
2750
2663
2554
2445
2348
2251
2181
2112
2067
2022
1990
1958
1933
1908
1893
1879
1885
1892
1924
1956
2005
2054
2102
2151
2179
2207
2204
2202
2175
2148
2110
2073
2039
2005
1978
1951
1926
1901
1870
1839
1801
1764
1727
1691
1668
1646
1642
1638
1643
1649
1647
1645
1621
1598
1555
1513
1476
1440
1448
1457
1540
1623
1781
1939
2138
2337
2519
2701
2812
2924
2939
2955
2886
2817
2703
2589
2473
2358
2269
2181
2124
2068
2030
1993
1963
1933
1908
1883
1871
1860
1873
1887
1926
1966
2016
2067
2108
2150
2164
2179
2163
2148
2112
2077
2038
2000
1966
1932
1901
1871
1836
1801
1757
1714
1667
1621
1585
1550
1536
1522
1527
1533
1540
1547
1535
1524
1485
1447
1399
1351
1331
1311
1359
1408
1542
1677
1877
2077
2289
2501
2662
2823
2889
2955
2921
2888
2786
2685
2565
2445
2346
2247
2186
2125
2092
2060
2038
2017
1995
1974
1956
1938
1936
1934
1957
1981
2026
2071
2119
2168
2199
2231
2234
2238
2216
2195
2163
2131
2101
2071
2047
2023
1997
1972
1936
1900
1853
1806
1758
1710
1677
1645
1636
1628
1636
1645
1650
1656
1639
1622
1581
1541
1501
1461
1462
1464
1542
1620
1782
1945
2159
2373
2579
2786
2923
3060
3065
3071
3030
2989
2873
2758
2643
2528
2448
2369
2332
2296
2287
2278
2272
2267
2252
2238
2217
2196
2183
2170
2177
2185
2211
2238
2269
2301
2319
2337
2329
2322
2293
2264
2225
2186
2151
2117
2091
2066
2044
2022
1993
1965
1926
1888
1845
1803
1770
1737
1723
1709
1712
1715
1719
1724
1712
1701
1667
1634
1594
1555
1541
1528
1574
1620
1738
1857
2030
2203
2383
2564
2699
2835
2888
2942
2910
2878
2787
2696
2588
2481
2392
2304
2248
2193
2164
2135
2116
2098
2080
2062
2045
2028
2022
2016
2029
2043
2074
2105
2140
2175
2196
2218
2215
2213
2188
2164
2129
2095
2062
2030
2005
1981
1959
1937
1909
1882
1846
1811
1774
1737
1710
1684
1676
1669
1676
1683
1689
1696
1684
1672
1639
1606
1567
1529
1519
1510
1559
1609
1730
1851
2021
2192
2366
2541
2667
2794
2839
2885
2847
2810
2717
2625
2516
2408
2315
2223
2158
2094
2054
2014
1987
1960
1941
1922
1915
1909
1922
1935
1969
2003
2048
2094
2133
2172
2189
2207
2196
2186
2155
2125
2089
2053
2022
1991
1966
1941
1915
1889
1856
1823
1784
1746
1711
1677
1657
1638
1636
1637
1641
1641
1620
1594
1560
1483
1455
1451
1529
1623
1752
1997
2191
2386
2557
2728
2828
2928
2935
2943
2873
2804
2694
2584
2473
2362
2275
2188
2128
2068
2026
1984
1951
1918
1894
1870
1863
1857
1875
1893
1933
1973
2021
2069
2105
2142
2153
2164
2149
2134
2102
2071
2037
2003
1971
1940
1909
1879
1841
1804
1759
1714
1667
1621
1587
1553
1539
1525
1526
1528
1528
1528
1509
1491
1451
1412
1372
1332
1328
1324
1391
1459
1607
1756
1960
2164
2367
2571
2715
2860
2908
2956
2908
2861
2753
2646
2526
2407
2312
2217
2159
2102
2070
2039
2016
1994
1971
1949
1932
1916
1917
1918
1945
1972
2018
2065
2112
2159
2185
2212
2210
2208
2182
2156
2122
2089
2059
2030
2007
1985
1960
1935
1898
1861
1812
1764
1716
1669
1639
1609
1604
1600
1612
1624
1631
1638
1619
1601
1559
1517
1479
1441
1449
1458
1548
1639
1815
1991
2214
2438
2645
2852
2961
3071
3071
3071
3022
2973
2851
2730
2616
2502
2429
2357
2328
2299
2295
2291
2287
2284
2267
2251
2227
2204
2188
2173
2178
2184
2209
2234
2264
2294
2312
2330
2324
2319
2293
2267
2232
2197
2164
2132
2105
2078
2051
2025
1991
1958
1916
1875
1833
1792
1763
1735
1727
1720
1726
1733
1736
1740
1723
1707
1668
1630
1589
1548
1539
1531
1587
1643
1772
1902
2080
2259
2437
2615
2739
2864
2902
2940
2893
2846
2746
2647
2539
2432
2349
2266
2220
2174
2153
2133
2121
2110
2095
2081
2066
2052
2047
2043
2057
2072
2102
2132
2164
2196
2212
2228
2220
2212
2183
2155
2119
2084
2053
2023
2001
1979
1959
1939
1912
1885
1848
1812
1774
1737
1710
1684
1678
1672
1680
1688
1694
1700
1686
1673
1638
1604
1566
1529
1523
1517
1574
1631
1758
1886
2059
2232
2403
2575
2693
2811
2846
2881
2835
2790
2694
2598
2491
2385
2298
2211
2153
2095
2058
2022
1996
1970
1950
1931
1922
1913
1924
1936
1969
2002
2046
2091
2128
2166
2181
2196
2183
2171
2140
2109
2073
2038
2008
1979
1955
1931
1906
1882
1849
1816
1777
1739
1705
1672
1655
1638
1640
1642
1649
1657
1653
1650
1624
1599
1558
1517
1489
1462
1485
1509
1606
1704
1869
2035
2229
2424
2590
2757
2848
2939
2937
2936
2858
2781
2667
2553
2443
2334
2252
2170
2117
2065
2030
1996
1968
1941
1920
1900
1895
1890
1909
1928
1969
2010
2057
2105
2140
2175
2181
2188
2166
2144
2105
2067
2026
1986
1951
1917
1887
1857
1823
1790
1749
1709
1666
1624
1592
1560
1546
1533
1535
1537
1538
1539
1523
1508
1472
1436
1397
1358
1352
1346
1409
1472
1614
1757
1956
2155
2356
2557
2701
2846
2893
2941
2892
2844
2732
2621
2496
2372
2273
2175
2116
2058
2030
2002
1985
1968
1950
1933
1917
1902
1900
1899
1920
1942
1983
2025
2070
2115
2143
2172
2173
2175
2152
2129
2095
2061
2029
1997
1970
1944
1917
1891
1856
1821
1777
1734
1691
1649
1620
1591
1582
1574
1578
1582
1581
1580
1559
1539
1503
1468
1443
1418
1442
1467
1569
1672
1851
2030
2247
2464
2659
2854
2962
3071
3071
3071
3012
2954
2838
2723
2615
2508
2440
2372
2344
2316
2309
2303
2296
2289
2271
2254
2232
2211
2199
2188
2197
2206
2232
2259
2287
2315
2329
2343
2333
2324
2296
2269
2235
2201
2171
2142
2118
2094
2069
2044
2010
1976
1933
1891
1850
1809
1782
1755
1746
1737
1738
1740
1734
1728
1702
1676
1632
1589
1553
1517
1525
1534
1614
1694
1844
1995
2184
2373
2545
2718
2823
2929
2943
2958
2892
2827
2720
2613
2510
2407
2336
2265
2231
2197
2183
2170
2159
2148
2129
2111
2091
2072
2064
2057
2070
2084
2114
2144
2175
2207
2222
2237
2227
2217
2186
2155
2116
2077
2041
2006
1979
1953
1929
1906
1879
1852
1819
1787
1757
1727
1708
1690
1688
1687
1694
1702
1702
1703
1683
1663
1624
1586
1549
1513
1514
1515
1581
1647
1781
1916
2091
2267
2435
2604
2715
2826
2853
2880
2829
2778
2680
2582
2476
2371
2286
2202
2147
2092
2058
2025
2001
1977
1959
1942
1935
1929
1942
1955
1988
2021
2064
2107
2142
2177
2189
2201
2186
2172
2140
2108
2072
2037
2007
1978
1954
1930
1904
1879
1845
1812
1773
1735
1702
1670
1654
1639
1642
1645
1653
1661
1657
1653
1626
1600
1560
1521
1498
1475
1504
1534
1637
1741
1909
2077
2267
2458
2615
2773
2852
2932
2920
2909
2826
2743
2629
2515
2409
2304
2226
2149
2100
2051
2018
1986
1960
1935
1918
1902
1902
1903
1927
1952
1995
2039
2085
2131
2159
2187
2186
2185
2157
2129
2087
2046
2006
1966
1933
1900
1870
1841
1807
1774
1733
1693
1653
1614
1587
1561
1554
1548
1555
1563
1565
1567
1548
1529
1488
1447
1406
1365
1363
1361
1432
1503
1655
1807
2010
2213
2410
2608
2741
2874
2908
2943
2883
2824
2708
2593
2470
2348
2253
2159
2103
2047
2018
1989
1969
1949
1929
1909
1894
1879
1881
1884
1910
1937
1980
2024
2065
2107
2128
2149
2142
2136
2106
2077
2039
2002
1968
1934
1905
1877
1847
1817
1780
1743
1701
1659
1623
1587
1569
1551
1553
1556
1565
1575
1572
1570
1541
1513
1469
1426
1400
1374
1409
1444
1565
1687
1885
2084
2312
2541
2733
2926
2998
3071
3071
3071
2985
2899
2774
2650
2545
2441
2383
2326
2310
2295
2298
2302
2299
2297
2280
2264
2242
2221
2210
2199
2208
2218
2244
2270
2295
2321
2331
2341
2328
2316
2287
2259
2225
2192
2162
2132
2105
2078
2047
2016
1976
1936
1891
1847
1809
1772
1754
1736
1738
1741
1750
1759
1753
1748
1715
1683
1633
1583
1546
1509
1525
1541
1636
1731
1897
2063
2260
2458
2627
2796
2888
2981
2978
2975
2897
2820
2710
2600
2503
2406
2344
2283
2255
2228
2216
2204
2190
2177
2155
2134
2115
2097
2093
2089
2105
2122
2150
2179
2202
2225
2228
2231
2211
2191
2157
2123
2090
2057
2033
2009
1991
1974
1953
1932
1900
1869
1829
1789
1752
1716
1696
1676
1676
1677
1686
1695
1693
1691
1665
1639
1595
1552
1518
1485
1499
1513
1598
1684
1837
1991
2175
2360
2522
2685
2778
2871
2877
2883
2816
2749
2646
2543
2442
2342
2267
2192
2143
2095
2062
2030
2004
1979
1960
1941
1937
1934
1954
1974
2014
2055
2101
2147
2178
2209
2212
2215
2190
2166
2126
2087
2048
2010
1981
1952
1929
1907
1881
1855
1819
1784
1744
1704
1672
1640
1627
1615
1622
1629
1640
1651
1647
1643
1615
1587
1548
1509
1491
1474
1514
1555
1672
1789
1966
2143
2334
2525
2672
2820
2883
2946
2916
2887
2790
2694
2574
2455
2351
2248
2177
2107
2066
2026
2001
1977
1958
1939
1928
1918
1923
1929
1956
1984
2027
2070
2112
2154
2176
2198
2191
2184
2153
2123
2083
2043
2007
1971
1942
1914
1886
1859
1824
1789
1746
1703
1661
1619
1591
1564
1557
1550
1556
1563
1563
1564
1543
1523
1483
1443
1410
1377
1388
1400
1487
1574
1737
1900
2103
2306
2491
2676
2788
2900
2913
2926
2852
2778
2659
2541
2424
2307
2221
2136
2087
2038
2011
1984
1963
1942
1921
1901
1889
1877
1885
1893
1925
1957
2000
2044
2081
2118
2131
2144
2129
2115
2081
2048
2011
1974
1942
1910
1882
1854
1821
1789
1747
1705
1658
1611
1573
1535
1517
1499
1502
1506
1516
1526
1522
1519
1492
1466
1430
1394
1382
1371
1424
1477
1612
1747
1949
2151
2368
2585
2754
2924
2997
3071
3043
3015
2915
2816
2697
2578
2485
2392
2344
2297
2286
2276
2278
2281
2276
2272
2256
2241
2225
2210
2209
2208
2226
2244
2273
2302
2324
2347
2348
2350
2329
2308
2273
2238
2201
2165
2134
2104
2076
2049
2017
1985
1944
1904
1861
1819
1785
1752
1738
1724
1724
1725
1726
1727
1710
1693
1653
1613
1568
1523
1508
1494
1546
1598
1730
1862
2052
2243
2441
2639
2785
2932
2987
3043
3005
2967
2868
2769
2656
2544
2457
2371
2325
2280
2264
2249
2241
2234
2219
2205
2182
2160
2142
2125
2124
2123
2142
2161
2188
2215
2234
2253
2251
2249
2225
2202
2167
2132
2099
2066
2039
2012
1989
1966
1937
1908
1871
1834
1794
1755
1725
1696
1685
1675
1681
1688
1694
1701
1690
1680
1645
1611
1567
1523
1502
1481
1518
1555
1666
1777
1945
2114
2296
2479
2623
2767
2832
2898
2878
2859
2777
2695
2590
2486
2393
2300
2235
2170
2130
2090
2063
2036
2014
1993
1979
1965
1966
1968
1991
2014
2052
2091
2129
2168
2188
2209
2203
2198
2170
2142
2104
2066
2031
1997
1969
1942
1916
1891
1861
1831
1795
1759
1725
1691
1669
1648
1644
1641
1648
1656
1656
1657
1636
1615
1574
1533
1494
1456
1457
1458
1528
1599
1743
1887
2075
2264
2445
2626
2746
2866
2897
2928
2874
2821
2717
2613
2500
2388
2297
2207
2147
2088
2051
2014
1987
1961
1941
1922
1914
1906
1918
1931
1965
2000
2045
2090
2127
2165
2179
2193
2180
2167
2135
2103
2067
2031
2000
1969
1941
1914
1883
1852
1811
1771
1725
1680
1641
1602
1582
1563
1563
1564
1570
1576
1567
1558
1525
1493
1447
1401
1376
1352
1388
1424
1544
1665
1855
2046
2258
2471
2641
2812
2891
2971
2946
2922
2821
2720
2592
2465
2355
2245
2173
2102
2063
2025
2000
1975
1949
1924
1899
1874
1863
1853
1868
1884
1924
1965
2013
2062
2095
2129
2131
2134
2106
2078
2034
1991
1948
1906
1873
1840
1812
1784
1752
1720
1679
1639
1596
1554
1523
1493
1483
1473
1479
1486
1490
1495
1481
1468
1435
1402
1373
1345
1360
1376
1470
1564
1740
1917
2142
2368
2580
2792
2927
3063
3067
3071
3019
2967
2846
2726
2610
2494
2416
2338
2305
2272
2264
2257
2251
2246
2230
2215
2195
2176
2166
2156
2167
2178
2206
2234
2264
2294
2307
2321
2310
2300
2270
2241
2206
2171
2141
2111
2087
2063
2036
2010
1975
1940
1897
1855
1815
1776
1752
1729
1724
1720
1722
1725
1716
1707
1674
1641
1592
1543
1510
1477
1500
1523
1627
1732
1910
2089
2298
2507
2684
2862
2956
3050
3043
3037
2950
2864
2747
2630
2528
2427
2367
2308
2288
2268
2265
2262
2254
2247
2227
2208
2184
2161
2149
2138
2146
2154
2176
2199
2221
2243
2248
2253
2236
2220
2188
2157
2123
2090
2064
2039
2019
2000
1978
1956
1924
1892
1852
1812
1774
1736
1713
1691
1688
1686
1693
1701
1699
1698
1674
1650
1606
1563
1526
1490
1496
1502
1578
1655
1802
1950
2135
2321
2492
2663
2771
2879
2899
2919
2861
2803
2700
2598
2492
2386
2303
2220
2167
2115
2083
2051
2029
2007
1990
1974
1969
1964
1977
1990
2022
2054
2093
2132
2162
2193
2201
2209
2193
2177
2145
2113
2079
2045
2016
1987
1962
1938
1910
1882
1847
1812
1774
1737
1707
1678
1666
1655
1660
1666
1673
1681
1672
1664
1631
1598
1553
1509
1484
1459
1491
1523
1630
1738
1907
2077
2266
2456
2609
2763
2838
2914
2899
2884
2800
2716
2603
2490
2385
2280
2204
2128
2079
2030
1998
1967
1943
1920
1906
1893
1896
1900
1926
1953
1997
2041
2086
2132
2160
2188
2189
2190
2165
2141
2105
2069
2034
1999
1969
1940
1912
1884
1849
1815
1773
1732
1691
1650
1623
1597
1590
1584
1592
1600
1601
1603
1584
1566
1527
1488
1451
1414
1418
1422
1499
1576
1732
1888
2090
2293
2485
2678
2801
2925
2950
2975
2908
2842
2724
2606
2483
2360
2265
2171
2112
2053
2018
1983
1956
1930
1906
1882
1868
1855
1863
1871
1903
1936
1982
2028
2067
2106
2119
2133
2116
2099
2061
2024
1981
1939
1902
1865
1834
1804
1771
1738
1697
1657
1612
1568
1531
1495
1478
1461
1463
1465
1471
1477
1467
1457
1424
1391
1350
1310
1299
1289
1349
1410
1559
1709
1926
2143
2373
2603
2777
2951
3011
3071
3041
3012
2901
2790
2662
2534
2436
2339
2289
2239
2226
2214
2214
2215
2210
2205
2190
2176
2165
2154
2158
2163
2186
2209
2238
2268
2287
2307
2303
2300
2276
2253
2219
2185
2154
2123
2098
2073
2048
2024
1990
1957
1913
1870
1825
1781
1749
1718
1708
1699
1704
1710
1711
1712
1692
1672
1629
1587
1546
1506
1507
1509
1587
1666
1825
1985
2194
2403
2601
2799
2926
3053
3062
3071
3015
2959
2841
2724
2610
2497
2421
2345
2312
2279
2270
2262
2254
2247
2227
2208
2182
2157
2140
2124
2129
2134
2159
2184
2213
2243
2257
2272
2261
2251
2219
2187
2148
2109
2076
2043
2021
1999
1980
1962
1937
1913
1878
1843
1804
1765
1735
1706
1695
1684
1688
1692
1695
1699
1685
1671
1636
1602
1564
1526
1517
1509
1562
1615
1739
1863
2036
2209
2384
2560
2685
2811
2855
2900
2862
2824
2733
2643
2539
2435
2350
2265
2209
2154
2121
2089
2066
2044
2024
2005
1992
1980
1984
1988
2012
2036
2073
2110
2144
2178
2193
2208
2198
2189
2160
2132
2098
2065
2036
2008
1985
1962
1938
1914
1880
1847
1806
1766
1729
1692
1671
1651
1652
1653
1665
1678
1682
1687
1668
1650
1611
1572
1538
1505
1514
1523
1602
1682
1831
1981
2167
2353
2521
2689
2789
2889
2898
2908
2839
2770
2658
2546
2434
2323
2237
2152
2098
2045
2013
1981
1959
1937
1922
1908
1907
1906
1924
1943
1981
2020
2065
2110
2144
2179
2188
2197
2180
2163
2129
2095
2058
2022
1989
1956
1927
1899
1867
1836
1799
1763
1726
1690
1663
1637
1627
1617
1619
1622
1619
1616
1596
1577
1538
1500
1462
1424
1421
1418
1483
1549
1692
1835
2029
2224
2417
2611
2746
2882
2924
2966
2915
2865
2755
2646
2523
2401
2301
2202
2137
2073
2035
1997
1970
1944
1921
1899
1884
1870
1873
1877
1904
1931
1973
2016
2056
2097
2117
2137
2130
2123
2093
2064
2025
1987
1949
1912
1876
1841
1802
1764
1719
1675
1628
1581
1543
1506
1488
1470
1470
1471
1475
1480
1470
1460
1426
1393
1350
1308
1292
1277
1328
1380
1518
1657
1864
2072
2297
2523
2701
2879
2960
3042
3018
2995
2896
2797
2673
2550
2448
2346
2285
2225
2198
2172
2159
2147
2131
2116
2098
2080
2070
2060
2071
2083
2116
2150
2191
2233
2263
2293
2296
2300
2278
2256
2220
2184
2148
2112
2082
2053
2025
1998
1964
1930
1887
1844
1800
1756
1724
1693
1681
1670
1673
1676
1676
1676
1654
1633
1591
1549
1509
1470
1473
1477
1557
1638
1802
1967
2183
2399
2605
2812
2941
3071
3071
3071
3032
2993
2876
2759
2644
2529
2451
2374
2339
2305
2296
2287
2279
2271
2250
2230
2201
2172
2151
2130
2130
2130
2152
2174
2204
2235
2255
2275
2272
2270
2245
2220
2184
2148
2113
2079
2050
2022
1996
1971
1940
1910
1873
1837
1800
1764
1740
1717
1711
1706
1713
1721
1724
1727
1710
1694
1655
1617
1577
1538
1531
1524
1582
1641
1771
1902
2081
2261
2439
2617
2741
2865
2902
2939
2891
2844
2742
2640
2527
2415
2325
2236
2182
2129
2103
2077
2062
2048
2034
2021
2011
2002
2003
2005
2025
2046
2079
2113
2146
2179
2196
2213
2206
2200
2173
2146
2112
2078
2046
2015
1989
1964
1939
1915
1885
1856
1820
1784
1750
1716
1694
1673
1668
1664
1669
1675
1674
1674
1656
1638
1606
1574
1550
1526
1542
1559
1640
1722
1866
2011
2187
2364
2522
2681
2774
2868
2875
2883
2814
2746
2637
2529
2419
2309
2223
2138
2082
2027
1994
1961
1938
1916
1902
1889
1890
1891
1912
1934
1974
2015
2061
2108
2142
2176
2185
2194
2176
2159
2126
2094
2059
2024
1994
1965
1938
1912
1882
1853
1815
1778
1739
1700
1670
1641
1629
1618
1621
1624
1624
1624
1608
1592
1556
1520
1482
1445
1442
1440
1505
1571
1714
1858
2053
2249
2443
2637
2771
2906
2946
2986
2933
2880
2768
2657
2534
2411
2311
2212
2146
2081
2041
2002
1973
1945
1920
1896
1882
1868
1874
1881
1912
1944
1990
2036
2077
2118
2136
2155
2144
2133
2100
2068
2028
1989
1953
1918
1887
1856
1822
1789
1747
1705
1659
1613
1574
1536
1516
1497
1496
1495
1499
1503
1491
1480
1446
1413
1370
1328
1314
1300
1352
1404
1541
1679
1882
2085
2301
2518
2684
2851
2921
2991
2958
2926
2822
2718
2592
2467
2365
2263
2202
2141
2113
2086
2072
2058
2043
2028
2013
1999
1996
1993
2012
2032
2072
2112
2157
2202
2232
2263
2266
2270
2249
2228
2195
2163
2131
2099
2071
2043
2013
1984
1945
1907
1859
1812
1766
1720
1690
1660
1651
1643
1648
1654
1653
1652
1629
1607
1565
1524
1491
1459
1476
1493
1590
1688
1865
2043
2261
2480
2676
2873
2972
3071
3071
3071
3009
2947
2824
2702
2590
2478
2407
2337
2309
2281
2275
2270
2263
2257
2239
2222
2199
2176
2162
2149
2157
2165
2191
2217
2245
2274
2288
2303
2294
2285
2257
2230
2195
2161
2131
2101
2077
2053
2027
2001
1966
1931
1887
1843
1801
1760
1734
1708
1704
1700
1709
1718
1722
1726
1708
1690
1651
1613
1577
1541
1545
1549
1622
1695
1840
1985
2170
2355
2526
2698
2805
2913
2930
2947
2883
2819
2711
2604
2495
2387
2306
2225
2176
2128
2101
2074
2052
2031
2011
1992
1981
1970
1977
1985
2014
2044
2085
2127
2161
2196
2208
2221
2207
2194
2163
2133
2099
2066
2039
2012
1990
1969
1943
1918
1883
1848
1807
1766
1730
1695
1677
1660
1662
1664
1674
1684
1683
1683
1660
1637
1601
1566
1545
1525
1553
1582
1680
1779
1936
2094
2272
2451
2597
2743
2816
2889
2876
2863
2783
2704
2594
2484
2380
2277
2198
2120
2068
2017
1983
1950
1926
1903
1890
1878
1883
1889
1916
1943
1985
2028
2071
2115
2143
2171
2174
2178
2159
2141
2112
2083
2054
2025
1998
1972
1944
1917
1882
1848
1808
1768
1729
1691
1666
1641
1633
1626
1629
1633
1628
1624
1601
1578
1539
1500
1470
1440
1453
1467
1553
1639
1797
1955
2152
2349
2529
2710
2823
2937
2956
2975
2910
2845
2731
2617
2498
2379
2283
2187
2121
2056
2011
1967
1933
1899
1874
1850
1842
1834
1851
1868
1910
1952
2003
2055
2097
2139
2154
2169
2156
2143
2110
2078
2041
2005
1971
1938
1905
1873
1835
1798
1752
1706
1658
1611
1575
1540
1525
1511
1514
1517
1519
1521
1504
1488
1449
1410
1370
1330
1327
1325
1397
1469
1624
1779
1989
2199
2405
2612
2753
2895
2935
2976
2919
2863
2748
2633
2510
2388
2294
2201
2146
2092
2063
2035
2014
1993
1971
1949
1933
1917
1920
1924
1955
1987
2037
2087
2136
2186
2213
2241
2238
2235
2207
2180
2144
2108
2075
2043
2015
1988
1959
1930
1892
1854
1809
1764
1723
1682
1658
1635
1632
1629
1634
1639
1633
1628
1599
1570
1528
1486
1463
1440
1477
1515
1637
1759
1954
2150
2371
2593
2777
2961
3016
3071
3071
3071
2985
2900
2776
2652
2547
2442
2379
2316
2290
2265
2255
2246
2232
2219
2198
2177
2157
2137
2134
2132
2153
2174
2210
2246
2278
2311
2324
2337
2323
2309
2277
2245
2206
2168
2135
2102
2074
2046
2016
1987
1951
1916
1876
1836
1801
1767
1748
1730
1728
1726
1730
1734
1727
1721
1694
1668
1630
1593
1572
1551
1578
1606
1702
1799
1955
2112
2290
2469
2619
2769
2848
2927
2919
2912
2837
2762
2655
2549
2449
2350
2279
2208
2166
2124
2099
2075
2055
2036
2019
2003
1996
1990
2001
2013
2042
2072
2109
2146
2173
2201
2206
2211
2193
2175
2142
2110
2076
2043
2016
1989
1967
1945
1920
1895
1862
1829
1791
1753
1721
1690
1674
1659
1661
1664
1674
1684
1685
1686
1669
1652
1627
1602
1593
1584
1621
1659
1759
1859
2010
2162
2326
2491
2621
2751
2810
2869
2847
2826
2743
2660
2552
2444
2344
2244
2170
2096
2048
2001
1970
1939
1918
1897
1888
1879
1887
1895
1925
1955
1998
2042
2085
2129
2154
2180
2180
2181
2160
2139
2108
2078
2047
2017
1990
1964
1936
1908
1874
1840
1800
1761
1725
1689
1667
1645
1641
1638
1643
1648
1644
1640
1617
1595
1559
1523
1498
1473
1495
1517
1610
1704
1865
2027
2219
2411
2580
2749
2845
2941
2944
2948
2873
2799
2685
2571
2457
2344
2256
2168
2108
2048
2007
1966
1933
1901
1879
1858
1855
1853
1876
1900
1946
1993
2045
2097
2133
2170
2178
2186
2165
2145
2109
2074
2037
2000
1969
1939
1908
1878
1841
1805
1759
1713
1666
1620
1587
1554
1543
1533
1538
1544
1546
1549
1530
1511
1468
1426
1384
1342
1341
1340
1415
1490
1649
1808
2019
2230
2433
2637
2772
2907
2939
2972
2908
2845
2726
2607
2482
2357
2262
2167
2109
2052
2020
1988
1963
1939
1915
1892
1877
1862
1868
1874
1907
1940
1991
2042
2089
2137
2163
2190
2186
2183
2158
2133
2100
2068
2040
2012
1987
1963
1934
1906
1866
1826
1778
1731
1688
1645
1620
1596
1592
1588
1593
1598
1591
1585
1556
1527
1487
1448
1431
1414
1460
1506
1637
1768
1970
2172
2395
2619
2798
2978
3024
3071
3071
3071
2972
2873
2747
2622
2520
2418
2359
2301
2281
2262
2257
2252
2243
2235
2216
2198
2180
2162
2159
2156
2174
2192
2223
2255
2283
2311
2320
2330
2316
2303
2274
2246
2214
2182
2154
2127
2102
2077
2047
2018
1980
1943
1901
1859
1824
1790
1771
1753
1750
1748
1748
1749
1736
1724
1691
1659
1618
1578
1559
1541
1578
1616
1725
1834
2000
2166
2346
2526
2667
2808
2871
2934
2911
2888
2802
2717
2610
2503
2411
2320
2261
2202
2170
2139
2119
2100
2081
2062
2043
2025
2017
2009
2020
2031
2061
2091
2126
2162
2186
2211
2212
2213
2192
2171
2139
2107
2077
2048
2026
2004
1985
1966
1941
1916
1880
1845
1804
1764
1731
1699
1685
1671
1674
1677
1683
1690
1682
1674
1645
1616
1579
1543
1530
1517
1559
1601
1713
1826
1992
2158
2333
2509
2643
2778
2834
2891
2863
2836
2749
2662
2553
2444
2347
2251
2181
2112
2068
2024
1994
1964
1943
1922
1912
1903
1912
1922
1952
1983
2027
2072
2113
2155
2177
2199
2194
2189
2163
2137
2103
2070
2040
2010
1986
1962
1937
1913
1881
1850
1811
1773
1737
1701
1679
1657
1653
1649
1655
1661
1657
1654
1631
1608
1569
1530
1501
1472
1488
1505
1593
1682
1840
1999
2193
2387
2560
2734
2838
2942
2952
2963
2893
2823
2709
2596
2480
2364
2272
2180
2118
2056
2013
1971
1939
1907
1884
1861
1856
1851
1870
1890
1933
1976
2027
2079
2119
2159
2172
2186
2171
2156
2122
2089
2051
2013
1979
1945
1913
1882
1845
1809
1765
1722
1677
1633
1600
1567
1553
1540
1543
1546
1548
1551
1536
1521
1484
1447
1407
1367
1360
1354
1417
1480
1623
1767
1967
2168
2371
2575
2721
2868
2918
2969
2923
2877
2767
2657
2531
2405
2301
2197
2130
2063
2024
1985
1957
1930
1905
1881
1863
1846
1847
1849
1877
1906
1954
2003
2053
2104
2135
2167
2169
2171
2147
2123
2087
2052
2017
1982
1952
1923
1893
1863
1825
1788
1743
1698
1656
1614
1586
1558
1550
1543
1546
1549
1546
1543
1521
1500
1466
1433
1415
1397
1432
1467
1580
1694
1880
2067
2285
2503
2692
2882
2976
3071
3071
3071
3002
2934
2815
2697
2588
2480
2409
2338
2306
2274
2263
2252
2243
2235
2220
2206
2191
2177
2175
2173
2189
2206
2235
2264
2290
2317
2326
2335
2322
2309
2280
2251
2217
2183
2153
2123
2097
2071
2042
2014
1978
1942
1901
1861
1826
1792
1773
1754
1751
1748
1749
1751
1739
1728
1695
1663
1618
1573
1546
1519
1545
1572
1673
1775
1942
2110
2303
2496
2659
2822
2908
2994
2986
2979
2897
2815
2700
2586
2481
2376
2305
2234
2197
2161
2143
2125
2110
2096
2079
2062
2051
2040
2045
2051
2075
2100
2135
2170
2197
2225
2231
2238
2220
2203
2170
2137
2103
2070
2043
2017
1996
1976
1952
1928
1894
1861
1820
1779
1743
1707
1687
1668
1669
1670
1680
1690
1689
1689
1666
1643
1603
1564
1536
1508
1526
1545
1634
1723
1878
2033
2216
2399
2558
2717
2806
2896
2897
2899
2828
2757
2649
2542
2436
2331
2250
2169
2115
2061
2025
1990
1963
1937
1920
1903
1903
1903
1926
1949
1991
2033
2080
2127
2159
2191
2197
2204
2185
2166
2134
2103
2070
2038
2010
1983
1956
1929
1895
1862
1820
1778
1735
1693
1664
1635
1628
1622
1632
1643
1652
1662
1651
1641
1607
1573
1533
1493
1483
1474
1529
1585
1716
1848
2033
2218
2406
2594
2729
2865
2912
2960
2919
2879
2780
2681
2565
2449
2350
2251
2180
2109
2061
2014
1978
1943
1915
1887
1872
1858
1867
1876
1911
1947
1998
2050
2098
2146
2171
2196
2191
2186
2158
2131
2093
2056
2021
1987
1956
1926
1894
1862
1822
1782
1737
1692
1652
1612
1589
1567
1564
1561
1567
1573
1568
1563
1535
1508
1465
1423
1395
1368
1393
1418
1521
1624
1797
1971
2175
2379
2554
2729
2826
2924
2923
2923
2843
2764
2646
2529
2416
2304
2221
2138
2086
2034
1999
1964
1934
1905
1880
1856
1846
1837
1852
1868
1907
1947
1996
2046
2084
2122
2133
2144
2126
2109
2075
2041
2005
1970
1942
1915
1892
1869
1842
1815
1778
1741
1698
1655
1619
1584
1565
1547
1545
1544
1545
1546
1533
1520
1489
1458
1427
1396
1399
1402
1474
1546
1698
1850
2058
2266
2475
2685
2835
2986
3028
3071
3033
2996
2890
2785
2669
2554
2467
2381
2337
2293
2278
2263
2255
2247
2231
2215
2193
2171
2155
2140
2143
2147
2171
2195
2226
2258
2279
2301
2301
2302
2281
2261
2230
2200
2170
2141
2116
2091
2065
2040
2007
1974
1932
1891
1850
1809
1780
1752
1744
1737
1743
1749
1750
1752
1732
1712
1669
1627
1583
1540
1533
1526
1589
1652
1792
1933
2123
2313
2500
2687
2815
2943
2979
3016
2965
2914
2811
2709
2600
2492
2412
2332
2289
2246
2228
2210
2196
2183
2162
2142
2118
2095
2082
2070
2078
2086
2114
2142
2175
2208
2227
2247
2242
2237
2210
2183
2146
2109
2076
2044
2020
1996
1976
1956
1930
1905
1870
1836
1798
1761
1732
1704
1695
1686
1693
1701
1709
1718
1710
1703
1672
1641
1601
1561
1544
1527
1565
1604
1714
1824
1989
2155
2332
2510
2647
2784
2843
2902
2875
2848
2759
2670
2558
2447
2349
2251
2183
2115
2075
2035
2011
1988
1971
1954
1945
1937
1943
1950
1976
2002
2041
2081
2120
2159
2180
2201
2196
2191
2165
2139
2104
2070
2038
2007
1982
1958
1934
1910
1878
1847
1807
1768
1730
1693
1671
1650
1650
1651
1666
1681
1692
1703
1690
1678
1642
1607
1569
1532
1530
1528
1592
1657
1794
1932
2112
2293
2465
2637
2748
2860
2883
2907
2850
2793
2690
2587
2478
2370
2284
2198
2140
2083
2045
2007
1976
1946
1922
1899
1890
1881
1896
1911
1950
1989
2038
2088
2126
2165
2177
2190
2172
2155
2120
2085
2047
2010
1979
1949
1923
1898
1870
1842
1805
1768
1726
1685
1651
1617
1601
1585
1586
1588
1590
1592
1580
1568
1534
1500
1458
1416
1400
1385
1432
1479
1606
1733
1921
2109
2309
2510
2663
2817
2881
2946
2916
2886
2789
2692
2573
2454
2351
2248
2177
2107
2063
2019
1986
1954
1924
1895
1872
1850
1845
1841
1862
1884
1926
1969
2016
2063
2094
2125
2128
2131
2109
2087
2051
2015
1977
1940
1905
1870
1834
1798
1757
1716
1671
1627
1589
1552
1532
1512
1513
1514
1525
1536
1537
1539
1517
1495
1455
1415
1386
1358
1381
1405
1508
1612
1794
1976
2196
2416
2613
2810
2927
3045
3057
3070
2995
2920
2804
2688
2579
2471
2400
2329
2297
2266
2255
2245
2234
2224
2204
2185
2164
2144
2136
2129
2143
2157
2187
2218
2247
2277
2290
2303
2292
2281
2253
2225
2193
2161
2133
2106
2081
2057
2028
1999
1959
1919
1872
1826
1785
1744
1722
1700
1699
1699
1706
1713
1708
1703
1673
1644
1600
1557
1530
1503
1533
1564
1674
1784
1964
2145
2349
2554
2723
2892
2975
3058
3042
3027
2936
2846
2730
2614
2517
2420
2364
2309
2289
2270
2264
2259
2245
2232
2207
2182
2154
2127
2114
2101
2111
2122
2149
2177
2205
2234
2246
2259
2248
2238
2210
2183
2149
2116
2086
2056
2029
2002
1972
1942
1905
1868
1827
1786
1752
1718
1701
1685
1687
1690
1700
1710
1708
1707
1682
1657
1614
1572
1539
1506
1518
1531
1613
1696
1845
1994
2176
2359
2521
2684
2781
2878
2887
2897
2832
2767
2663
2559
2456
2353
2275
2198
2152
2106
2079
2053
2034
2016
2001
1986
1980
1974
1984
1995
2023
2052
2088
2125
2153
2182
2189
2197
2182
2167
2137
2107
2074
2042
2013
1984
1958
1932
1901
1871
1835
1799
1761
1723
1695
1668
1659
1650
1655
1661
1667
1673
1662
1651
1617
1583
1541
1500
1483
1467
1510
1554
1670
1787
1960
2133
2316
2499
2638
2778
2835
2893
2864
2835
2745
2656
2546
2436
2340
2245
2180
2115
2076
2037
2012
1987
1968
1949
1939
1929
1934
1940
1965
1990
2027
2065
2100
2135
2152
2170
2163
2157
2133
2109
2079
2050
2023
1996
1972
1949
1920
1892
1854
1816
1769
1723
1682
1641
1617
1594
1593
1593
1603
1614
1612
1610
1583
1557
1510
1464
1426
1388
1399
1411
1502
1594
1764
1934
2143
2353
2540
2728
2837
2947
2954
2961
2880
2800
2677
2554
2435
2316
2231
2147
2098
2050
2022
1994
1969
1945
1921
1898
1883
1868
1875
1882
1914
1946
1991
2036
2072
2109
2119
2130
2111
2092
2052
2012
1967
1923
1884
1846
1812
1779
1746
1713
1674
1636
1597
1559
1530
1501
1489
1478
1480
1482
1482
1482
1463
1445
1406
1368
1331
1295
1299
1304
1385
1466
1633
1800
2023
2246
2466
2687
2840
2993
3032
3071
3022
2973
2859
2745
2626
2508
2424
2341
2304
2267
2260
2253
2251
2250
2237
2225
2203
2182
2165
2148
2149
2151
2172
2193
2221
2249
2267
2286
2283
2280
2258
2237
2206
2175
2145
2116
2089
2063
2034
2005
1967
1929
1883
1838
1796
1754
1729
1704
1701
1698
1707
1716
1716
1717
1692
1667
1620
1574
1534
1495
1504
1513
1602
1691
1860
2029
2240
2452
2643
2835
2949
3063
3067
3071
2999
2928
2811
2695
2591
2487
2424
2362
2341
2321
2319
2317
2309
2301
2275
2250
2216
2182
2158
2135
2136
2137
2159
2182
2210
2238
2251
2264
2250
2237
2202
2167
2125
2084
2049
2015
1991
1968
1948
1929
1904
1880
1847
1814
1781
1748
1727
1707
1704
1702
1710
1719
1720
1722
1700
1678
1634
1590
1547
1504
1499
1495
1560
1626
1766
1906
2089
2273
2449
2625
2740
2855
2882
2910
2857
2805
2706
2608
2505
2402
2323
2245
2196
2148
2119
2091
2069
2048
2030
2012
2004
1996
2007
2019
2050
2082
2123
2164
2195
2227
2233
2240
2218
2197
2158
2119
2078
2037
2005
1974
1950
1927
1904
1881
1850
1820
1784
1749
1718
1687
1671
1656
1658
1660
1668
1676
1671
1666
1639
1612
1571
1530
1505
1481
1507
1533
1632
1731
1891
2052
2236
2420
2573
2726
2805
2884
2875
2866
2788
2710
2600
2491
2388
2286
2210
2135
2087
2040
2011
1982
1962
1942
1932
1922
1928
1935
1961
1987
2027
2068
2106
2145
2166
2187
2181
2175
2146
2118
2080
2043
2008
1974
1947
1920
1895
1870
1839
1809
1772
1736
1700
1665
1642
1620
1616
1612
1619
1627
1624
1622
1598
1575
1532
1490
1451
1413
1417
1422
1501
1580
1735
1891
2091
2291
2478
2665
2784
2903
2924
2946
2880
2814
2699
2584
2466
2348
2258
2168
2113
2059
2028
1998
1977
1957
1939
1922
1913
1905
1914
1924
1953
1983
2021
2059
2088
2118
2124
2130
2109
2089
2050
2012
1969
1927
1888
1850
1816
1782
1746
1710
1670
1630
1590
1551
1523
1495
1486
1478
1482
1487
1489
1491
1472
1454
1412
1371
1328
1285
1280
1276
1347
1419
1578
1737
1956
2176
2396
2617
2775
2933
2986
3040
2990
2941
2828
2715
2593
2471
2382
2293
2252
2211
2203
2195
2196
2198
2191
2184
2169
2154
2143
2132
2137
2143
2166
2189
2217
2246
2262
2279
2275
2271
2246
2222
2189
2157
2126
2095
2068
2042
2013
1985
1948
1912
1869
1826
1786
1746
1722
1698
1694
1690
1695
1700
1695
1690
1660
1631
1584
1537
1502
1467
1485
1504
1605
1707
1887
2068
2285
2502
2693
2885
2978
3071
3071
3071
3002
2933
2817
2701
2601
2501
2444
2388
2372
2356
2356
2356
2346
2337
2308
2279
2241
2203
2177
2151
2149
2148
2170
2193
2221
2249
2263
2277
2265
2254
2221
2189
2149
2109
2075
2041
2016
1991
1968
1946
1917
1888
1851
1815
1779
1743
1720
1698
1694
1691
1697
1704
1703
1702
1678
1654
1610
1567
1529
1491
1496
1502
1580
1659
1811
1963
2155
2347
2522
2698
2806
2914
2929
2945
2880
2816
2711
2607
2506
2405
2334
2263
2224
2186
2163
2141
2119
2097
2071
2046
2027
2008
2009
2010
2035
2060
2098
2137
2169
2202
2211
2220
2201
2182
2145
2108
2070
2032
2002
1972
1950
1928
1904
1880
1847
1815
1776
1737
1704
1672
1658
1644
1648
1653
1663
1674
1669
1665
1635
1605
1560
1516
1489
1463
1492
1522
1627
1733
1902
2072
2261
2451
2603
2756
2828
2900
2881
2862
2776
2690
2577
2465
2363
2262
2190
2118
2073
2029
2000
1972
1952
1932
1923
1914
1924
1935
1967
2000
2046
2093
2135
2177
2195
2214
2201
2189
2152
2116
2072
2029
1992
1956
1929
1903
1880
1858
1830
1802
1766
1731
1696
1661
1638
1615
1610
1605
1610
1615
1612
1610
1587
1564
1524
1484
1452
1420
1432
1445
1529
1614
1772
1931
2128
2325
2506
2688
2801
2915
2935
2955
2891
2827
2715
2603
2487
2371
2280
2189
2130
2072
2037
2003
1980
1957
1940
1924
1919
1914
1926
1939
1968
1998
2033
2069
2095
2121
2125
2130
2111
2093
2059
2026
1988
1951
1916
1882
1847
1813
1774
1736
1691
1647
1605
1563
1534
1505
1495
1486
1490
1494
1493
1493
1471
1450
1407
1365
1323
1282
1281
1281
1357
1433
1594
1756
1973
2190
2404
2618
2767
2916
2962
3008
2954
2900
2785
2670
2546
2422
2329
2237
2188
2139
2123
2107
2101
2095
2087
2080
2071
2062
2063
2064
2083
2102
2136
2170
2203
2237
2253
2270
2261
2253
2224
2196
2159
2123
2090
2058
2029
2001
1970
1940
1901
1863
1819
1775
1736
1697
1677
1657
1657
1658
1666
1674
1668
1662
1629
1597
1547
1497
1464
1432
1459
1487
1604
1722
1919
2117
2347
2577
2770
2964
3017
3071
3071
3071
2987
2904
2777
2651
2549
2448
2396
2344
2335
2326
2332
2338
2334
2330
2306
2283
2250
2218
2197
2176
2178
2181
2203
2225
2250
2276
2286
2296
2282
2269
2237
2205
2169
2133
2101
2070
2045
2020
1993
1967
1932
1898
1858
1818
1783
1748
1730
1712
1712
1713
1720
1728
1723
1719
1690
1661
1616
1572
1541
1510
1530
1550
1644
1738
1898
2059
2245
2432
2589
2746
2827
2909
2901
2893
2815
2737
2631
2526
2433
2340
2280
2220
2189
2159
2142
2125
2106
2088
2067
2046
2032
2019
2025
2031
2058
2085
2121
2158
2186
2214
2218
2223
2202
2182
2147
2113
2078
2043
2015
1987
1964
1941
1914
1888
1853
1819
1782
1745
1716
1688
1679
1670
1678
1686
1696
1706
1698
1690
1657
1625
1581
1537
1515
1494
1530
1567
1677
1788
1957
2127
2310
2493
2634
2775
2834
2894
2865
2836
2744
2652
2539
2426
2329
2232
2167
2102
2065
2028
2006
1984
1967
1950
1939
1928
1933
1938
1962
1987
2027
2067
2106
2145
2167
2189
2184
2179
2151
2123
2084
2045
2008
1971
1939
1908
1880
1852
1821
1790
1758
1726
1698
1671
1656
1642
1641
1640
1642
1645
1631
1618
1584
1551
1506
1461
1435
1410
1440
1470
1578
1686
1862
2038
2241
2444
2613
2783
2873
2964
2957
2951
2869
2788
2672
2556
2447
2339
2259
2179
2126
2074
2036
1999
1967
1935
1911
1887
1881
1876
1896
1917
1959
2002
2049
2096
2125
2155
2155
2156
2129
2103
2064
2025
1988
1951
1920
1889
1858
1827
1787
1748
1699
1651
1603
1556
1524
1493
1484
1476
1483
1490
1491
1492
1468
1445
1400
1355
1316
1277
1287
1297
1391
1486
1665
1845
2071
2297
2503
2709
2834
2959
2973
2988
2907
2826
2698
2570
2448
2326
2243
2161
2122
2083
2068
2053
2041
2029
2012
1995
1982
1969
1974
1979
2009
2040
2085
2130
2170
2211
2227
2244
2230
2217
2183
2150
2112
2075
2043
2011
1984
1958
1928
1898
1858
1819
1774
1729
1692
1655
1637
1620
1622
1624
1629
1634
1622
1610
1573
1536
1491
1447
1433
1420
1478
1537
1684
1832
2047
2263
2488
2714
2882
3050
3060
3071
3065
3060
2950
2840
2721
2603
2517
2431
2391
2351
2341
2331
2327
2323
2306
2290
2262
2234
2210
2186
2182
2178
2197
2217
2248
2279
2301
2324
2323
2322
2296
2271
2232
2194
2157
2120
2092
2064
2040
2017
1989
1962
1925
1889
1848
1808
1776
1744
1730
1717
1720
1724
1729
1735
1723
1711
1675
1640
1596
1552
1532
1513
1553
1594
1710
1826
1999
2172
2357
2542
2682
2822
2879
2937
2907
2877
2787
2698
2592
2486
2400
2314
2262
2210
2184
2158
2140
2123
2104
2085
2065
2046
2039
2032
2045
2058
2090
2122
2156
2191
2210
2230
2224
2218
2190
2162
2124
2087
2054
2022
1998
1974
1953
1933
1906
1880
1845
1811
1775
1739
1715
1692
1687
1682
1690
1698
1702
1707
1692
1677
1640
1604
1567
1530
1526
1523
1584
1645
1775
1906
2079
2253
2419
2586
2696
2806
2831
2857
2804
2752
2654
2556
2452
2349
2268
2187
2134
2082
2049
2017
1992
1968
1948
1929
1922
1915
1928
1942
1978
2014
2061
2108
2146
2184
2197
2211
2196
2182
2147
2113
2074
2036
2002
1969
1941
1914
1885
1857
1823
1790
1754
1719
1692
1666
1656
1646
1651
1657
1661
1666
1653
1640
1603
1567
1522
1477
1458
1440
1484
1528
1651
1775
1960
2145
2341
2538
2688
2838
2899
2960
2927
2894
2794
2695
2574
2454
2351
2248
2179
2110
2069
2028
2000
1973
1950
1927
1912
1898
1900
1903
1928
1954
1996
2038
2078
2118
2138
2159
2151
2144
2114
2085
2047
2010
1975
1941
1911
1882
1850
1819
1780
1741
1695
1649
1608
1568
1545
1523
1521
1519
1526
1533
1529
1525
1496
1467
1422
1377
1347
1318
1345
1372
1481
1591
1775
1960
2173
2387
2567
2747
2841
2935
2925
2916
2826
2736
2613
2491
2382
2273
2202
2131
2094
2058
2037
2016
1994
1972
1948
1925
1911
1898
1909
1920
1957
1995
2045
2095
2135
2175
2187
2199
2181
2164
2128
2092
2054
2016
1985
1955
1929
1903
1873
1844
1806
1768
1728
1688
1657
1627
1616
1605
1608
1611
1612
1614
1596
1578
1539
1501
1463
1426
1430
1434
1514
1595
1759
1924
2141
2359
2569
2779
2919
3060
3065
3071
3032
2994
2880
2767
2654
2541
2464
2388
2354
2321
2313
2305
2299
2294
2278
2263
2240
2218
2203
2189
2194
2199
2222
2245
2272
2299
2313
2328
2321
2314
2289
2264
2232
2201
2172
2144
2120
2097
2071
2045
2009
1973
1928
1884
1840
1797
1769
1741
1734
1727
1733
1739
1738
1738
1715
1692
1648
1605
1565
1525
1525
1525
1596
1667
1812
1957
2145
2333
2510
2687
2800
2914
2936
2959
2899
2840
2734
2629
2523
2417
2340
2264
2223
2183
2165
2148
2135
2123
2106
2089
2072
2055
2050
2045
2059
2074
2103
2132
2161
2191
2205
2219
2210
2201
2173
2145
2110
2075
2044
2013
1988
1964
1940
1917
1889
1862
1830
1798
1770
1742
1726
1711
1711
1712
1718
1724
1719
1715
1687
1659
1614
1569
1532
1495
1502
1509
1586
1663
1809
1956
2138
2321
2488
2655
2758
2861
2877
2893
2831
2770
2665
2561
2453
2346
2263
2180
2126
2072
2039
2006
1982
1959
1942
1925
1920
1916
1932
1949
1985
2022
2068
2114
2150
2186
2198
2211
2196
2182
2148
2115
2077
2039
2005
1971
1941
1912
1881
1851
1816
1781
1745
1710
1683
1657
1647
1637
1640
1644
1647
1650
1637
1624
1591
1558
1520
1483
1474
1466
1519
1572
1700
1829
2012
2195
2385
2575
2716
2857
2911
2965
2928
2892
2792
2693
2573
2454
2351
2248
2176
2105
2060
2016
1986
1957
1935
1914
1903
1893
1901
1910
1940
1971
2015
2059
2099
2139
2157
2175
2164
2154
2122
2091
2053
2015
1982
1949
1922
1895
1867
1839
1802
1766
1722
1679
1639
1599
1576
1553
1550
1547
1553
1560
1557
1554
1528
1502
1460
1418
1390
1363
1388
1414
1518
1622
1798
1975
2181
2387
2563
2739
2833
2928
2922
2916
2829
2743
2619
2495
2379
2264
2181
2099
2051
2004
1976
1948
1926
1905
1888
1871
1866
1862
1879
1897
1936
1976
2022
2069
2104
2139
2148
2148
2131
2106
2040
2006
1974
1917
1889
1859
1788
1746
1704
1641
1611
1581
1571
1561
1565
1570
1571
1573
1555
1537
1497
1458
1422
1386
1392
1399
1483
1568
1737
1907
2129
2351
2565
2779
2921
3063
3067
3071
3031
2992
2873
2755
2637
2519
2438
2358
2322
2286
2277
2269
2264
2259
2244
2229
2208
2187
2174
2161
2169
2178
2207
2236
2270
2304
2323
2343
2336
2330
2300
2270
2230
2190
2153
2117
2089
2061
2037
2014
1986
1959
1924
1889
1854
1819
1794
1769
1760
1752
1754
1756
1753
1750
1727
1705
1664
1623
1585
1547
1549
1551
1621
1691
1834
1977
2163
2350
2527
2705
2820
2935
2959
2984
2924
2865
2758
2651
2541
2432
2352
2273
2231
2189
2172
2156
2145
2134
2118
2103
2086
2070
2063
2056
2068
2081
2110
2139
2170
2201
2218
2235
2229
2223
2196
2170
2134
2099
2065
2032
2003
1975
1948
1922
1891
1860
1825
1790
1758
1727
1709
1692
1692
1693
1704
1715
1719
1723
1705
1688
1649
1611
1573
1536
1533
1530
1591
1653
1784
1916
2091
2267
2437
2608
2723
2839
2869
2899
2848
2797
2696
2595
2483
2372
2282
2192
2133
2075
2041
2007
1984
1962
1945
1928
1921
1914
1924
1935
1967
2000
2046
2092
2135
2178
2200
2222
2217
2212
2183
2154
2115
2077
2038
2000
1966
1933
1900
1868
1833
1799
1763
1728
1700
1673
1660
1647
1649
1651
1656
1661
1654
1647
1619
1592
1554
1517
1498
1480
1514
1548
1653
1758
1924
2090
2276
2463
2616
2770
2848
2926
2915
2904
2823
2743
2631
2520
2415
2310
2231
2153
2101
2050
2014
1978
1949
1921
1901
1882
1880
1879
1903
1927
1972
2018
2068
2119
2154
2189
2194
2200
2177
2154
2114
2075
2032
1990
1953
1917
1885
1853
1819
1785
1747
1710
1673
1637
1612
1587
1578
1569
1570
1572
1567
1563
1540
1517
1476
1436
1401
1366
1374
1382
1462
1543
1702
1861
2067
2274
2472
2670
2800
2931
2962
2993
2929
2866
2746
2627
2499
2371
2270
2169
2105
2041
2004
1968
1942
1917
1895
1873
1859
1846
1852
1859
1889
1920
1966
2013
2056
2100
2122
2145
2138
2132
2104
2076
2040
2004
1971
1938
1908
1879
1847
1815
1774
1734
1689
1644
1605
1566
1545
1525
1524
1524
1530
1536
1530
1524
1495
1467
1428
1390
1376
1362
1410
1459
1592
1726
1929
2133
2356
2580
2759
2939
3005
3071
3065
3059
2962
2865
2744
2623
2523
2424
2366
2308
2285
2262
2252
2242
2227
2213
2191
2169
2152
2135
2136
2137
2160
2184
2218
2252
2279
2307
2313
2319
2301
2283
2251
2220
2188
2157
2131
2105
2082
2059
2029
2000
1959
1919
1874
1829
1793
1758
1741
1725
1727
1729
1733
1738
1726
1714
1678
1642
1598
1555
1538
1521
1568
1615
1740
1866
2052
2239
2435
2631
2779
2927
2984
3041
3003
2966
2863
2761
2643
2526
2433
2341
2291
2241
2223
2206
2198
2191
2176
2162
2139
2117
2097
2078
2077
2076
2097
2119
2152
2185
2210
2236
2239
2243
2221
2199
2163
2127
2091
2055
2027
2000
1979
1958
1935
1913
1881
1850
1812
1775
1742
1710
1694
1678
1679
1680
1687
1694
1688
1683
1656
1630
1592
1555
1535
1515
1547
1579
1682
1786
1949
2113
2296
2480
2629
2779
2853
2928
2913
2899
2816
2734
2621
2509
2404
2299
2222
2145
2096
2048
2017
1986
1963
1941
1928
1915
1919
1923
1949
1976
2019
2062
2106
2151
2178
2205
2205
2205
2181
2157
2121
2085
2052
2019
1992
1966
1942
1918
1888
1858
1819
1781
1741
1702
1674
1647
1639
1631
1638
1645
1650
1656
1643
1630
1596
1563
1529
1495
1495
1495
1560
1626
1764
1902
2086
2271
2451
2632
2755
2878
2914
2950
2901
2852
2749
2647
2533
2419
2323
2228
2161
2094
2049
2004
1970
1936
1910
1884
1872
1860
1872
1884
1921
1958
2009
2061
2106
2152
2173
2195
2187
2179
2148
2118
2079
2041
2006
1972
1943
1914
1883
1853
1816
1780
1738
1696
1659
1623
1601
1580
1575
1571
1572
1573
1564
1555
1526
1498
1460
1422
1404
1387
1426
1465
1579
1694
1873
2053
2254
2455
2621
2787
2871
2955
2943
2931
2843
2755
2633
2512
2397
2282
2198
2114
2060
2006
1972
1938
1912
1887
1870
1853
1852
1852
1874
1896
1937
1978
2022
2067
2096
2126
2130
2134
2113
2093
2060
2027
1994
1961
1933
1905
1875
1846
1809
1772
1725
1679
1633
1588
1556
1525
1515
1505
1510
1515
1517
1520
1503
1486
1450
1414
1383
1353
1367
1381
1471
1562
1734
1906
2125
2345
2553
2761
2897
3034
3052
3071
3018
2965
2848
2732
2612
2493
2407
2321
2276
2231
2212
2194
2182
2171
2154
2138
2121
2104
2098
2093
2108
2123
2155
2187
2221
2256
2276
2296
2292
2288
2265
2242
2211
2180
2150
2121
2095
2069
2041
2014
1978
1943
1901
1859
1820
1782
1758
1734
1728
1722
1724
1727
1720
1714
1686
1658
1615
1573
1542
1511
1529
1548
1641
1735
1900
2066
2266
2466
2644
2822
2926
3031
3039
3047
2972
2898
2782
2667
2558
2449
2375
2301
2266
2231
2218
2206
2195
2185
2167
2149
2128
2108
2097
2087
2097
2107
2133
2159
2187
2215
2228
2242
2233
2225
2197
2169
2135
2101
2071
2041
2018
1995
1973
1951
1923
1895
1858
1822
1786
1751
1727
1704
1698
1693
1699
1706
1708
1710
1692
1674
1636
1598
1560
1523
1520
1518
1581
1644
1778
1913
2093
2273
2450
2627
2748
2869
2903
2938
2888
2839
2737
2635
2522
2410
2318
2227
2167
2108
2073
2038
2014
1991
1973
1955
1946
1937
1946
1956
1987
2018
2062
2106
2145
2185
2202
2219
2208
2197
2165
2133
2095
2057
2025
1993
1968
1944
1921
1899
1870
1841
1805
1769
1734
1700
1678
1656
1651
1646
1651
1656
1653
1651
1630
1609
1574
1540
1517
1494
1515
1537
1627
1717
1871
2026
2210
2394
2556
2718
2811
2905
2909
2914
2842
2771
2659
2548
2436
2324
2236
2148
2089
2031
1993
1955
1929
1903
1886
1870
1871
1872
1895
1919
1963
2007
2057
2107
2144
2181
2191
2201
2183
2166
2132
2098
2062
2026
1995
1965
1938
1912
1881
1851
1813
1776
1735
1695
1662
1630
1614
1598
1597
1597
1596
1595
1581
1567
1534
1502
1468
1434
1430
1427
1487
1548
1683
1818
2006
2194
2386
2578
2717
2857
2907
2957
2915
2874
2771
2668
2547
2427
2324
2222
2152
2083
2039
1995
1963
1932
1905
1878
1860
1842
1843
1845
1872
1899
1944
1990
2035
2081
2107
2133
2131
2129
2102
2076
2039
2002
1966
1931
1900
1869
1838
1807
1768
1730
1685
1640
1598
1556
1528
1501
1493
1485
1487
1489
1483
1478
1454
1431
1397
1363
1346
1330
1370
1410
1529
1649
1842
2035
2257
2479
2668
2858
2959
3061
3058
3055
2967
2880
2756
2633
2521
2410
2338
2267
2233
2200
2186
2172
2158
2144
2125
2107
2092
2078
2082
2086
2114
2142
2183
2225
2259
2294
2304
2314
2295
2277
2240
2204
2164
2125
2094
2063
2039
2016
1991
1967
1933
1900
1860
1821
1786
1751
1732
1714
1712
1711
1713
1715
1702
1690
1654
1618
1571
1524
1500
1477
1516
1555
1677
1799
1989
2180
2391
2602
2772
2942
3006
3071
3062
3054
2959
2865
2744
2624
2523
2422
2360
2298
2271
2244
2232
2220
2206
2192
2171
2151
2133
2116
2114
2112
2130
2149
2178
2208
2232
2257
2260
2264
2244
2225
2191
2157
2122
2088
2062
2036
2016
1997
1975
1954
1924
1894
1856
1819
1784
1749
1729
1709
1706
1704
1709
1714
1709
1704
1677
1651
1609
1567
1535
1504
1518
1533
1617
1701
1851
2002
2184
2367
2530
2694
2791
2889
2899
2910
2845
2781
2677
2574
2470
2366
2287
2208
2158
2109
2079
2049
2026
2004
1986
1968
1961
1954
1966
1979
2012
2046
2089
2132
2166
2200
2210
2221
2204
2187
2153
2119
2082
2045
2015
1986
1964
1942
1919
1897
1867
1837
1801
1765
1731
1698
1678
1658
1654
1650
1653
1656
1649
1643
1619
1596
1563
1531
1514
1498
1530
1563
1662
1762
1919
2077
2256
2436
2586
2736
2815
2894
2887
2881
2806
2731
2623
2516
2411
2307
2226
2146
2092
2038
2000
1963
1935
1908
1891
1875
1877
1880
1907
1934
1981
2029
2080
2131
2166
2202
2208
2215
2194
2173
2136
2099
2061
2024
1993
1962
1936
1910
1881
1852
1817
1782
1744
1707
1678
1650
1636
1623
1621
1619
1611
1603
1580
1557
1516
1476
1438
1400
1400
1401
1472
1543
1692
1841
2042
2243
2441
2639
2776
2914
2955
2997
2945
2893
2782
2672
2548
2424
2322
2220
2150
2081
2037
1993
1960
1927
1899
1872
1856
1840
1845
1851
1881
1911
1956
2002
2043
2084
2103
2122
2114
2107
2080
2053
2020
1988
1959
1931
1904
1877
1843
1810
1764
1718
1664
1610
1564
1519
1495
1471
1472
1473
1484
1495
1493
1491
1463
1435
1391
1348
1324
1301
1339
1378
1503
1628
1827
2027
2251
2476
2661
2846
2939
3032
3019
3007
2915
2824
2702
2581
2476
2371
2306
2242
2212
2183
2170
2157
2143
2129
2112
2096
2085
2075
2083
2092
2120
2148
2184
2221
2248
2275
2280
2285
2268
2252
2224
2196
2167
2139
2115
2091
2064
2038
2001
1964
1915
1866
1816
1767
1733
1699
1691
1684
1697
1711
1724
1738
1727
1716
1672
1629
1572
1516
1487
1459
1501
1544
1677
1811
2013
2216
2434
2653
2821
2990
3030
3071
3062
3053
2950
2848
2727
2606
2509
2412
2355
2298
2273
2249
2235
2222
2204
2187
2164
2142
2125
2109
2111
2114
2137
2160
2192
2224
2247
2271
2272
2273
2251
2229
2195
2161
2129
2098
2075
2052
2034
2017
1994
1971
1935
1900
1855
1811
1771
1731
1710
1689
1690
1691
1702
1714
1716
1719
1698
1678
1639
1600
1569
1539
1552
1566
1648
1731
1878
2026
2204
2383
2541
2699
2790
2882
2889
2896
2830
2764
2661
2558
2456
2355
2278
2201
2152
2104
2075
2047
2026
2006
1991
1977
1974
1971
1986
2001
2033
2065
2102
2139
2165
2192
2197
2203
2187
2171
2143
2116
2088
2060
2037
2014
1992
1970
1941
1913
1874
1835
1792
1750
1716
1683
1670
1658
1665
1673
1685
1698
1696
1695
1670
1645
1605
1566
1542
1519
1544
1570
1664
1759
1913
2067
2242
2418
2564
2711
2788
2865
2859
2853
2781
2710
2606
2503
2402
2301
2221
2142
2086
2031
1992
1953
1925
1897
1883
1869
1875
1881
1910
1940
1987
2034
2081
2129
2159
2190
2193
2196
2174
2153
2119
2085
2050
2016
1987
1959
1932
1906
1875
1845
1808
1772
1736
1701
1677
1654
1648
1643
1649
1655
1653
1652
1632
1613
1572
1532
1491
1450
1444
1438
1500
1562
1701
1840
2030
2221
2411
2602
2737
2872
2916
2961
2915
2870
2766
2662
2543
2424
2324
2224
2155
2087
2043
1999
1967
1935
1909
1884
1869
1855
1862
1869
1901
1933
1980
2027
2070
2113
2132
2152
2142
2132
2098
2064
2023
1982
1945
1909
1879
1850
1819
1788
1749
1711
1665
1619
1577
1535
1509
1484
1479
1475
1481
1487
1484
1482
1457
1433
1393
1354
1330
1307
1339
1371
1484
1597
1785
1973
2191
2410
2596
2783
2884
2986
2984
2982
2897
2812
2692
2572
2465
2358
2290
2222
2190
2159
2145
2131
2115
2099
2078
2058
2044
2030
2037
2044
2076
2108
2154
2200
2238
2277
2289
2302
2285
2269
2234
2200
2163
2126
2096
2066
2041
2016
1986
1956
1914
1873
1824
1776
1735
1694
1674
1655
1656
1658
1666
1674
1667
1660
1627
1594
1550
1506
1487
1468
1514
1561
1693
1826
2027
2229
2447
2666
2835
3005
3038
3071
3065
3060
2954
2849
2726
2603
2508
2413
2363
2313
2298
2283
2279
2275
2262
2249
2223
2198
2173
2149
2141
2133
2148
2164
2194
2224
2251
2279
2286
2294
2276
2259
2225
2191
2154
2118
2088
2059
2035
2012
1986
1961
1927
1894
1853
1813
1776
1740
1719
1699
1697
1696
1703
1711
1709
1708
1684
1661
1621
1581
1550
1520
1534
1549
1632
1715
1864
2014
2194
2375
2536
2697
2791
2885
2893
2901
2835
2770
2668
2566
2467
2368
2296
2225
2183
2141
2117
2094
2074
2055
2036
2017
2006
1996
2004
2012
2040
2068
2106
2145
2175
2206
2214
2223
2205
2188
2154
2120
2084
2048
2019
1990
1967
1945
1921
1898
1867
1836
1800
1764
1733
1703
1689
1675
1679
1683
1693
1703
1700
1697
1671
1646
1605
1565
1538
1511
1531
1552
1642
1733
1886
2039
2217
2396
2547
2699
2781
2863
2859
2856
2784
2712
2607
2502
2401
2301
2225
2149
2100
2051
2019
1987
1962
1938
1922
1906
1906
1906
1928
1951
1992
2033
2078
2124
2156
2188
2193
2198
2178
2158
2123
2089
2053
2018
1988
1958
1931
1905
1875
1845
1809
1773
1736
1700
1673
1647
1638
1629
1633
1638
1637
1637
1620
1604
1566
1529
1489
1450
1442
1435
1492
1550
1684
1819
2008
2198
2390
2583
2723
2863
2912
2962
2920
2878
2773
2669
2547
2426
2322
2219
2149
2079
2036
1993
1965
1937
1914
1892
1880
1869
1876
1884
1915
1947
1993
2040
2083
2127
2149
2172
2164
2157
2126
2095
2054
2014
1976
1939
1907
1875
1841
1808
1767
1726
1679
1632
1590
1548
1523
1498
1494
1490
1495
1501
1497
1493
1465
1437
1394
1351
1322
1294
1321
1349
1458
1567
1751
1936
2152
2369
2555
2741
2843
2945
2945
2945
2863
2781
2665
2549
2445
2341
2274
2208
2177
2146
2131
2116
2099
2082
2061
2040
2026
2012
2019
2026
2057
2089
2132
2176
2210
2245
2254
2264
2246
2228
2194
2160
2125
2091
2065
2039
2016
1994
1965
1936
1895
1854
1806
1758
1718
1679
1661
1644
1647
1650
1658
1666
1657
1648
1612
1577
1530
1483
1461
1440
1485
1530
1661
1793
1993
2193
2410
2627
2797
2967
3019
3071
3064
3057
2962
2867
2754
2641
2552
2463
2414
2366
2348
2331
2322
2314
2297
2281
2255
2230
2208
2186
2182
2179
2197
2216
2245
2275
2297
2320
2319
2319
2294
2270
2232
2194
2157
2121
2094
2067
2047
2027
2003
1980
1946
1912
1870
1829
1792
1755
1735
1715
1713
1712
1717
1723
1716
1710
1680
1650
1605
1560
1529
1498
1516
1535
1627
1719
1877
2035
2222
2409
2571
2733
2824
2915
2918
2922
2853
2784
2682
2580
2482
2385
2315
2245
2203
2162
2137
2112
2090
2068
2048
2029
2018
2008
2016
2024
2051
2079
2115
2151
2178
2206
2211
2217
2198
2180
2148
2116
2083
2051
2025
2000
1978
1957
1932
1908
1873
1839
1800
1761
1728
1696
1681
1667
1671
1676
1687
1699
1697
1695
1669
1643
1601
1559
1529
1500
1517
1535
1623
1711
1861
2012
2189
2367
2519
2672
2756
2840
2839
2839
2769
2700
2598
2497
2399
2302
2231
2160
2115
2071
2042
2014
1992
1970
1953
1936
1933
1931
1949
1968
2006
2045
2089
2133
2164
2195
2200
2205
2182
2160
2122
2085
2047
2009
1979
1949
1925
1902
1876
1851
1819
1788
1752
1717
1688
1660
1647
1635
1636
1638
1638
1639
1625
1611
1576
1542
1502
1462
1448
1435
1483
1532
1657
1783
1967
2151
2347
2543
2692
2842
2904
2966
2934
2903
2804
2705
2583
2462
2356
2251
2178
2106
2063
2020
1992
1965
1943
1921
1907
1894
1897
1900
1926
1952
1995
2038
2080
2123
2146
2169
2163
2157
2126
2095
2053
2012
1972
1933
1900
1868
1836
1805
1768
1732
1689
1646
1606
1566
1540
1515
1509
1503
1507
1511
1506
1502
1474
1446
1400
1354
1318
1282
1297
1313
1410
1507
1684
1862
2079
2297
2493
2689
2806
2924
2936
2949
2872
2795
2674
2553
2437
2322
2243
2165
2126
2087
2071
2056
2043
2030
2014
1998
1986
1974
1980
1986
2016
2046
2091
2136
2176
2216
2234
2252
2240
2228
2195
2163
2124
2086
2052
2019
1990
1961
1929
1898
1857
1817
1771
1726
1688
1651
1633
1616
1620
1624
1634
1645
1640
1635
1603
1571
1523
1475
1447
1420
1455
1491
1615
1739
1939
2140
2368
2596
2783
2971
3021
3071
3071
3071
2983
2896
2772
2649
2550
2451
2399
2348
2337
2326
2329
2333
2328
2324
2303
2282
2255
2228
2212
2196
2202
2209
2232
2256
2281
2306
2314
2323
2308
2294
2261
2229
2192
2156
2124
2093
2068
2043
2017
1991
1958
1925
1885
1845
1809
1773
1752
1731
1728
1726
1731
1737
1733
1730
1703
1677
1633
1589
1554
1519
1528
1537
1616
1696
1844
1993
2176
2359
2525
2691
2791
2891
2904
2917
2855
2793
2692
2592
2494
2397
2327
2258
2221
2184
2165
2147
2131
2116
2097
2079
2064
2049
2048
2047
2064
2082
2112
2143
2170
2197
2206
2216
2203
2190
2160
2130
2096
2062
2033
2004
1980
1956
1932
1908
1876
1845
1808
1772
1739
1707
1689
1671
1671
1671
1679
1688
1688
1688
1667
1646
1609
1572
1542
1513
1524
1536
1613
1691
1832
1974
2148
2322
2480
2638
2734
2831
2845
2859
2800
2741
2642
2543
2442
2341
2262
2184
2133
2082
2049
2016
1992
1969
1952
1935
1932
1929
1946
1964
2001
2039
2083
2127
2159
2191
2197
2203
2182
2161
2124
2088
2050
2013
1984
1955
1932
1909
1884
1859
1825
1792
1754
1716
1684
1653
1639
1626
1631
1636
1642
1649
1642
1636
1606
1577
1535
1494
1472
1451
1487
1523
1636
1750
1927
2105
2301
2497
2653
2810
2881
2952
2928
2905
2811
2718
2599
2480
2375
2271
2201
2131
2090
2050
2024
1998
1975
1953
1935
1917
1913
1910
1929
1948
1986
2025
2067
2109
2134
2159
2155
2152
2123
2094
2053
2012
1972
1933
1902
1871
1842
1814
1780
1746
1704
1662
1621
1580
1552
1524
1516
1509
1516
1523
1525
1528
1510
1492
1453
1414
1376
1339
1342
1346
1422
1499
1655
1812
2016
2220
2415
2610
2738
2867
2897
2928
2868
2808
2696
2585
2470
2356
2271
2187
2139
2092
2068
2044
2025
2007
1987
1968
1953
1939
1943
1948
1976
2004
2048
2093
2133
2174
2192
2210
2199
2189
2157
2126
2090
2054
2024
1995
1972
1949
1923
1898
1861
1824
1777
1731
1688
1646
1622
1598
1596
1595
1605
1615
1614
1614
1588
1562
1518
1474
1444
1414
1441
1468
1580
1693
1884
2076
2302
2529
2724
2920
2995
3071
3071
3071
3003
2935
2814
2693
2589
2486
2426
2367
2349
2332
2332
2332
2327
2322
2302
2283
2257
2232
2217
2202
2209
2216
2240
2265
2291
2317
2326
2335
2319
2304
2270
2237
2200
2163
2133
2104
2082
2061
2038
2015
1981
1948
1903
1859
1814
1770
1741
1713
1708
1704
1715
1726
1734
1742
1726
1711
1671
1631
1590
1549
1546
1543
1609
1676
1818
1961
2149
2337
2515
2693
2806
2919
2938
2958
2893
2828
2719
2610
2504
2398
2326
2255
2222
2190
2180
2171
2162
2154
2136
2119
2099
2080
2072
2064
2078
2092
2122
2153
2183
2214
2226
2238
2223
2208
2172
2137
2096
2056
2024
1993
1973
1953
1936
1919
1894
1870
1836
1803
1767
1731
1707
1683
1678
1673
1681
1689
1692
1696
1679
1663
1625
1587
1549
1512
1511
1510
1575
1641
1778
1916
2098
2280
2453
2627
2741
2856
2881
2907
2850
2793
2687
2582
2471
2361
2275
2190
2138
2087
2059
2032
2014
1996
1979
1963
1954
1945
1952
1960
1989
2018
2059
2100
2136
2173
2188
2203
2189
2176
2142
2108
2067
2027
1992
1957
1929
1901
1875
1849
1818
1788
1753
1718
1688
1659
1643
1628
1628
1629
1633
1638
1631
1625
1598
1571
1532
1493
1471
1450
1482
1514
1619
1725
1895
2066
2259
2453
2613
2773
2854
2935
2922
2910
2824
2739
2623
2507
2401
2296
2223
2151
2109
2067
2042
2017
1996
1975
1957
1940
1935
1931
1948
1966
2004
2042
2086
2131
2161
2191
2193
2195
2167
2140
2095
2051
2004
1958
1919
1880
1846
1813
1780
1748
1711
1675
1639
1604
1579
1554
1545
1537
1539
1542
1538
1535
1512
1489
1446
1404
1363
1323
1322
1321
1393
1465
1618
1771
1975
2180
2380
2580
2716
2853
2891
2929
2873
2817
2705
2593
2474
2356
2267
2178
2128
2078
2053
2029
2009
1990
1966
1943
1920
1898
1893
1889
1912
1935
1980
2025
2072
2119
2147
2175
2172
2169
2140
2111
2071
2032
1997
1963
1936
1910
1885
1861
1828
1796
1754
1713
1672
1631
1604
1577
1570
1563
1567
1572
1569
1566
1542
1518
1478
1439
1414
1389
1419
1449
1564
1679
1872
2066
2294
2523
2720
2918
2994
3071
3071
3071
3002
2934
2811
2689
2584
2480
2421
2362
2345
2329
2331
2333
2329
2325
2306
2287
2262
2238
2225
2212
2221
2231
2257
2283
2308
2334
2340
2347
2329
2311
2275
2239
2200
2162
2132
2103
2082
2062
2041
2021
1990
1960
1920
1880
1840
1800
1774
1748
1741
1735
1738
1742
1738
1734
1707
1681
1637
1593
1556
1520
1530
1540
1622
1705
1859
2014
2205
2396
2568
2741
2844
2948
2960
2973
2906
2840
2735
2630
2529
2429
2360
2292
2257
2223
2208
2194
2180
2166
2146
2127
2106
2086
2078
2070
2081
2092
2117
2142
2165
2189
2197
2205
2191
2178
2149
2120
2087
2055
2028
2002
1981
1960
1937
1914
1881
1849
1809
1770
1734
1699
1679
1660
1661
1663
1675
1688
1692
1697
1678
1660
1620
1580
1544
1508
1511
1515
1587
1659
1801
1943
2124
2306
2476
2646
2754
2862
2882
2903
2844
2786
2682
2579
2472
2365
2281
2197
2144
2092
2061
2031
2010
1990
1975
1960
1955
1951
1964
1977
2008
2040
2079
2119
2150
2181
2189
2198
2181
2165
2132
2099
2063
2028
1997
1967
1941
1916
1888
1860
1825
1791
1753
1716
1687
1658
1646
1634
1639
1644
1650
1657
1649
1642
1611
1581
1539
1498
1477
1457
1492
1528
1638
1749
1921
2093
2284
2475
2629
2783
2857
2932
2916
2901
2817
2734
2621
2509
2406
2304
2229
2154
2105
2057
2024
1992
1966
1940
1923
1907
1908
1909
1933
1957
1998
2040
2082
2124
2149
2174
2171
2168
2141
2115
2078
2041
2006
1971
1942
1914
1885
1857
1821
1786
1742
1698
1655
1613
1584
1556
1549
1542
1548
1554
1554
1555
1533
1511
1468
1426
1386
1346
1349
1352
1430
1508
1667
1826
2032
2239
2435
2632
2760
2888
2917
2946
2882
2819
2703
2588
2467
2347
2256
2166
2112
2059
2029
2000
1977
1955
1932
1909
1892
1875
1877
1880
1907
1935
1980
2025
2068
2111
2132
2153
2144
2135
2103
2072
2032
1993
1957
1922
1893
1865
1836
1808
1772
1737
1696
1656
1621
1586
1567
1549
1549
1549
1555
1562
1555
1549
1519
1489
1445
1401
1378
1355
1394
1434
1561
1689
1892
2095
2326
2557
2749
2941
3006
3071
3071
3071
2984
2897
2773
2650
2548
2446
2389
2333
2317
2301
2300
2300
2293
2287
2268
2249
2227
2206
2198
2191
2205
2219
2247
2276
2301
2326
2332
2338
2319
2301
2266
2232
2195
2159
2129
2099
2075
2052
2026
2000
1965
1931
1891
1851
1816
1781
1762
1743
1741
1739
1741
1743
1732
1721
1686
1652
1605
1559
1532
1505
1534
1563
1668
1774
1946
2119
2314
2509
2671
2833
2914
2996
2984
2972
2888
2804
2692
2581
2484
2388
2330
2272
2248
2225
2218
2212
2202
2193
2174
2156
2136
2117
2110
2103
2114
2126
2150
2175
2196
2218
2223
2228
2210
2193
2160
2128
2093
2059
2031
2003
1981
1959
1936
1914
1884
1854
1818
1782
1750
1718
1701
1684
1683
1683
1690
1697
1692
1688
1661
1635
1593
1551
1521
1492
1509
1526
1614
1703
1857
2012
2196
2380
2541
2702
2793
2885
2887
2890
2819
2749
2642
2536
2433
2331
2254
2178
2131
2084
2054
2024
2000
1977
1959
1942
1939
1936
1956
1976
2017
2059
2106
2153
2186
2219
2222
2226
2200
2174
2131
2089
2048
2007
1976
1945
1922
1900
1876
1853
1822
1791
1755
1719
1689
1660
1647
1634
1636
1639
1643
1648
1638
1628
1596
1564
1526
1488
1475
1463
1511
1560
1683
1806
1986
2166
2355
2544
2686
2829
2886
2944
2912
2880
2785
2690
2575
2461
2361
2262
2193
2125
2082
2040
2010
1981
1957
1934
1920
1907
1912
1917
1946
1975
2019
2064
2106
2148
2169
2190
2183
2176
2146
2117
2079
2042
2007
1973
1943
1914
1883
1853
1813
1774
1727
1681
1639
1597
1572
1548
1545
1543
1551
1560
1560
1560
1537
1514
1472
1431
1399
1368
1386
1404
1500
1596
1766
1937
2143
2349
2530
2712
2817
2922
2928
2935
2859
2784
2667
2551
2438
2325
2240
2156
2101
2047
2009
1971
1938
1906
1879
1852
1840
1829
1845
1861
1901
1942
1992
2043
2080
2118
2127
2137
2117
2097
2060
2023
1985
1948
1917
1887
1860
1833
1800
1767
1725
1683
1638
1593
1560
1528
1517
1507
1515
1523
1532
1541
1529
1518
1481
1445
1402
1360
1352
1344
1410
1476
1630
1784
2001
2219
2443
2668
2834
3001
3036
3071
3054
3038
2933
2829
2711
2594
2504
2414
2365
2317
2300
2283
2275
2268
2254
2240
2220
2201
2187
2174
2177
2181
2204
2227
2257
2287
2308
2329
2328
2328
2306
2285
2252
2220
2188
2156
2129
2102
2076
2050
2017
1985
1943
1902
1858
1815
1782
1749
1735
1721
1721
1722
1722
1722
1704
1687
1649
1611
1571
1531
1524
1517
1575
1633
1767
1901
2087
2273
2460
2648
2782
2917
2963
3009
2969
2929
2834
2740
2638
2536
2460
2384
2344
2305
2288
2272
2258
2244
2218
2193
2161
2129
2104
2080
2077
2075
2096
2118
2150
2182
2205
2228
2230
2232
2211
2190
2157
2124
2092
2061
2036
2012
1989
1967
1939
1911
1873
1835
1793
1752
1720
1688
1676
1665
1671
1677
1686
1695
1689
1683
1654
1625
1585
1546
1527
1508
1543
1578
1684
1791
1954
2117
2296
2476
2618
2761
2828
2896
2878
2861
2780
2699
2591
2483
2385
2287
2216
2145
2100
2056
2029
2002
1983
1964
1954
1945
1951
1957
1982
2007
2046
2085
2124
2163
2185
2207
2204
2201
2176
2152
2117
2083
2050
2017
1990
1964
1939
1915
1884
1854
1817
1781
1744
1708
1683
1658
1651
1644
1649
1654
1656
1659
1643
1628
1594
1560
1528
1496
1497
1499
1563
1627
1760
1894
2071
2249
2423
2598
2720
2843
2882
2922
2881
2840
2746
2653
2545
2437
2344
2251
2183
2115
2067
2020
1984
1948
1921
1895
1883
1872
1884
1896
1932
1968
2016
2065
2107
2150
2168
2187
2177
2168
2138
2108
2072
2036
2004
1972
1944
1917
1887
1857
1818
1780
1736
1692
1653
1614
1592
1570
1567
1565
1567
1570
1563
1556
1527
1498
1456
1415
1391
1368
1401
1434
1547
1660
1843
2027
2236
2446
2621
2797
2887
2978
2967
2957
2865
2774
2647
2520
2401
2282
2197
2113
2063
2013
1983
1954
1930
1907
1888
1870
1862
1855
1869
1883
1916
1950
1991
2032
2062
2093
2100
2107
2089
2072
2040
2008
1973
1939
1908
1878
1847
1817
1781
1746
1705
1664
1624
1585
1558
1532
1525
1518
1522
1527
1526
1525
1501
1477
1432
1388
1348
1309
1315
1321
1409
1497
1674
1851
2084
2318
2545
2772
2921
3071
3071
3071
3042
3014
2890
2767
2639
2512
2420
2329
2284
2240
2228
2216
2212
2208
2197
2186
2167
2148
2134
2121
2126
2131
2156
2181
2213
2246
2270
2294
2295
2297
2277
2257
2224
2192
2157
2123
2091
2060
2029
1998
1962
1927
1887
1848
1812
1777
1755
1733
1728
1724
1729
1734
1731
1729
1705
1682
1640
1599
1564
1530
1538
1547
1627
1708
1860
2012
2204
2397
2574
2752
2862
2973
2990
3007
2942
2878
2770
2662
2558
2454
2383
2312
2279
2247
2236
2225
2214
2203
2182
2161
2136
2111
2096
2082
2090
2099
2126
2154
2187
2220
2238
2257
2251
2245
2217
2189
2152
2116
2084
2053
2030
2008
1989
1970
1944
1918
1882
1847
1807
1768
1738
1709
1699
1689
1694
1699
1705
1712
1701
1691
1659
1627
1589
1551
1540
1529
1576
1624
1742
1861
2030
2200
2375
2551
2680
2809
2857
2906
2870
2835
2743
2651
2542
2434
2342
2251
2189
2128
2092
2057
2033
2009
1990
1971
1959
1947
1951
1955
1980
2006
2047
2088
2128
2169
2191
2214
2209
2204
2177
2150
2113
2077
2043
2010
1983
1957
1932
1908
1878
1849
1813
1777
1741
1705
1682
1659
1653
1647
1652
1657
1657
1658
1641
1624
1590
1556
1527
1499
1509
1519
1594
1670
1812
1954
2133
2313
2480
2648
2754
2861
2881
2902
2845
2789
2687
2586
2479
2372
2286
2200
2141
2082
2042
2002
1971
1941
1918
1895
1887
1879
1895
1911
1951
1991
2041
2091
2132
2173
2188
2204
2191
2179
2147
2115
2079
2044
2013
1982
1955
1928
1897
1867
1828
1790
1747
1704
1668
1633
1615
1598
1597
1597
1598
1600
1588
1576
1542
1509
1468
1427
1412
1397
1444
1491
1617
1743
1931
2120
2321
2523
2679
2835
2902
2970
2941
2912
2814
2717
2595
2474
2367
2261
2187
2113
2066
2020
1986
1953
1923
1894
1873
1852
1849
1847
1871
1895
1938
1982
2028
2074
2102
2130
2129
2128
2101
2075
2037
2000
1964
1928
1897
1867
1836
1806
1767
1729
1683
1637
1592
1548
1518
1489
1481
1473
1477
1482
1481
1480
1458
1437
1399
1361
1333
1305
1327
1350
1452
1555
1738
1922
2147
2373
2579
2786
2914
3042
3056
3071
3004
2937
2817
2698
2582
2466
2387
2308
2270
2232
2219
2206
2196
2186
2168
2151
2132
2113
2108
2103
2120
2137
2172
2208
2244
2280
2299
2318
2310
2302
2273
2245
2208
2172
2139
2106
2078
2051
2022
1993
1955
1917
1871
1825
1781
1738
1710
1683
1676
1669
1674
1680
1678
1676
1653
1630
1590
1550
1521
1493
1514
1536
1635
1734
1907
2081
2290
2499
2683
2867
2969
3071
3071
3071
2993
2915
2794
2673
2562
2451
2379
2308
2276
2245
2235
2225
2215
2205
2186
2168
2147
2127
2119
2111
2124
2138
2166
2195
2222
2250
2259
2268
2251
2235
2199
2164
2125
2086
2055
2025
2005
1985
1966
1947
1920
1894
1858
1822
1786
1750
1726
1703
1699
1696
1704
1713
1716
1719
1700
1681
1640
1599
1559
1519
1516
1513
1577
1642
1779
1916
2097
2279
2454
2629
2746
2864
2896
2928
2879
2830
2732
2635
2529
2423
2338
2254
2198
2142
2107
2072
2045
2018
1995
1973
1960
1948
1956
1964
1994
2025
2068
2112
2150
2188
2204
2220
2209
2199
2170
2141
2108
2075
2048
2021
2000
1980
1957
1934
1901
1868
1826
1784
1744
1704
1680
1657
1654
1651
1660
1669
1670
1672
1651
1631
1592
1554
1522
1491
1502
1514
1595
1676
1825
1975
2159
2343
2509
2675
2775
2876
2888
2901
2837
2774
2669
2564
2457
2351
2266
2182
2125
2068
2029
1990
1960
1931
1910
1889
1885
1882
1901
1921
1962
2003
2050
2098
2133
2168
2177
2186
2170
2154
2123
2093
2062
2032
2008
1985
1963
1942
1914
1886
1846
1807
1762
1717
1680
1643
1625
1608
1609
1610
1611
1613
1599
1586
1550
1514
1470
1427
1410
1393
1441
1489
1617
1746
1936
2127
2328
2529
2682
2835
2898
2961
2929
2897
2799
2701
2582
2464
2362
2260
2190
2120
2075
2031
1997
1964
1933
1902
1879
1856
1853
1851
1876
1901
1946
1992
2038
2085
2111
2137
2132
2128
2098
2068
2028
1989
1953
1917
1889
1861
1833
1806
1770
1735
1690
1646
1602
1558
1529
1500
1491
1483
1486
1490
1487
1484
1459
1434
1392
1350
1319
1288
1308
1329
1432
1535
1718
1901
2124
2348
2550
2752
2875
2998
3016
3034
2962
2891
2774
2658
2545
2432
2354
2276
2235
2195
2177
2159
2145
2131
2115
2099
2087
2076
2082
2089
2117
2146
2187
2229
2264
2299
2311
2323
2306
2290
2255
2221
2183
2145
2114
2083
2058
2034
2007
1980
1942
1904
1858
1812
1770
1728
1703
1679
1675
1672
1678
1684
1678
1673
1644
1616
1571
1527
1498
1470
1497
1525
1635
1745
1930
2115
2332
2549
2734
2920
2995
3071
3071
3071
2996
2921
2798
2676
2568
2460
2393
2326
2298
2271
2263
2255
2244
2234
2213
2192
2168
2145
2134
2124
2135
2147
2175
2203
2231
2259
2268
2278
2263
2248
2213
2179
2140
2102
2071
2041
2019
1998
1978
1958
1930
1902
1864
1826
1787
1749
1723
1698
1693
1688
1696
1705
1709
1713
1696
1679
1640
1602
1563
1524
1520
1517
1580
1644
1780
1917
2100
2283
2461
2639
2759
2879
2911
2943
2891
2840
2739
2638
2529
2420
2336
2252
2200
2149
2120
2092
2070
2049
2029
2009
1993
1978
1979
1981
2004
2028
2066
2105
2142
2179
2197
2215
2206
2198
2169
2141
2105
2069
2038
2007
1983
1959
1935
1912
1881
1851
1814
1778
1743
1709
1688
1668
1666
1664
1672
1680
1680
1681
1661
1641
1603
1565
1532
1500
1508
1517
1593
1669
1813
1957
2138
2319
2486
2653
2758
2863
2882
2902
2844
2786
2683
2581
2472
2364
2277
2190
2130
2070
2030
1990
1961
1932
1912
1892
1887
1883
1901
1919
1958
1998
2046
2094
2131
2168
2180
2193
2178
2164
2133
2102
2068
2035
2007
1980
1956
1932
1904
1876
1839
1802
1759
1717
1681
1646
1628
1611
1611
1611
1614
1618
1609
1600
1570
1540
1501
1462
1445
1428
1470
1512
1630
1749
1930
2112
2309
2507
2663
2819
2890
2962
2939
2916
2822
2729
2609
2489
2382
2275
2199
2124
2076
2029
1996
1963
1934
1905
1883
1861
1856
1851
1872
1894
1936
1979
2027
2076
2108
2141
2145
2149
2126
2103
2065
2027
1988
1949
1916
1883
1852
1821
1784
1748
1705
1662
1619
1577
1547
1517
1505
1494
1495
1496
1493
1490
1468
1446
1407
1368
1336
1304
1317
1331
1420
1510
1679
1848
2062
2276
2478
2680
2811
2942
2972
3003
2940
2878
2764
2651
2535
